I,II,III,aVR,aVL,aVF,V1,V2,V3,V4,V5,V6
6,8,3,-7,1,5,25,12,1,2,-29,-5
4,7,4,-6,0,5,28,12,1,3,-26,-8
2,5,4,-3,-1,4,31,10,0,3,-29,-10
0,1,0,-1,0,0,30,9,0,2,-33,-14
6,-3,-8,-2,7,-6,22,8,-3,0,-32,-16
8,-2,-10,-3,9,-7,19,3,-5,-3,-36,-16
13,2,-11,-8,12,-5,18,-2,-8,-3,-30,-16
13,6,-7,-9,10,-1,16,-6,-11,-3,-30,-14
6,8,2,-7,2,4,15,-6,-12,-2,-31,-13
7,14,6,-10,0,9,12,-8,-13,-1,-26,-11
8,20,12,-14,-2,16,8,-11,-13,-2,-30,-11
10,24,14,-17,-3,19,9,-12,-15,-2,-28,-12
10,26,16,-18,-4,21,12,-15,-17,-2,-31,-12
7,27,20,-17,-7,23,12,-13,-15,-2,-34,-12
8,29,21,-19,-7,25,9,-9,-12,1,-29,-7
7,30,23,-18,-9,26,2,-4,-9,4,-29,-4
9,31,22,-20,-7,26,-9,3,-8,10,-17,-2
10,30,20,-20,-5,25,-25,5,-9,12,-12,0
8,26,18,-17,-5,21,-44,6,-9,12,-12,-2
15,26,11,-20,2,18,-65,3,-11,9,-9,-6
21,26,5,-24,7,15,-86,-3,-14,2,-18,-13
21,29,7,-25,7,18,-101,-13,-19,-3,-21,-20
17,33,16,-25,0,24,-115,-27,-25,-9,-31,-26
6,34,28,-20,-12,31,-126,-46,-30,-18,-46,-40
-4,36,39,-16,-22,37,-137,-68,-36,-28,-57,-57
-17,30,47,-7,-32,38,-133,-86,-37,-42,-82,-87
-28,21,48,3,-38,34,-118,-100,-37,-55,-104,-127
-41,5,46,18,-44,25,-98,-107,-31,-72,-139,-179
-58,-18,40,38,-50,11,-71,-106,-18,-90,-181,-244
-82,-48,33,65,-58,-8,-40,-103,-3,-104,-224,-320
-116,-88,29,102,-73,-30,-3,-99,18,-120,-282,-407
-153,-138,16,145,-85,-61,48,-90,44,-133,-340,-510
-194,-196,-2,195,-96,-99,106,-79,72,-148,-411,-623
-240,-260,-20,250,-111,-140,165,-60,112,-157,-482,-746
-286,-325,-40,305,-123,-183,223,-36,156,-162,-546,-872
-336,-399,-63,367,-137,-231,278,-8,197,-166,-616,-1003
-385,-476,-91,431,-148,-284,331,24,235,-167,-675,-1136
-428,-544,-116,486,-156,-330,364,58,275,-157,-730,-1224
-468,-605,-137,536,-166,-372,385,94,317,-137,-778,-1284
-477,-648,-171,563,-154,-410,390,150,361,-89,-770,-1272
-470,-679,-209,575,-131,-445,381,219,406,-23,-733,-1209
-436,-691,-255,564,-91,-474,361,296,445,59,-641,-1094
-382,-688,-306,535,-38,-497,329,378,477,151,-517,-935
-327,-653,-326,490,-1,-489,287,443,510,249,-367,-755
-264,-590,-326,427,31,-459,237,498,542,355,-186,-552
-209,-515,-305,362,48,-410,185,536,570,457,-12,-360
-154,-426,-272,290,58,-349,136,563,595,560,174,-177
-101,-335,-234,218,66,-285,82,571,602,639,327,-18
-53,-243,-190,148,68,-216,28,565,598,700,456,115
-8,-154,-146,81,69,-151,-17,546,583,738,555,213
28,-71,-99,22,63,-86,-54,517,561,751,613,278
51,-11,-61,-20,56,-36,-84,478,526,740,640,310
64,32,-31,-48,47,0,-110,430,479,707,630,319
71,60,-10,-66,40,25,-133,380,429,657,595,309
80,79,-1,-79,40,39,-155,329,372,596,549,289
85,89,3,-87,41,46,-166,286,321,532,491,269
93,93,0,-93,46,46,-167,252,273,470,442,248
96,93,-3,-94,49,44,-171,220,227,414,393,233
92,88,-5,-90,48,41,-174,189,186,362,347,215
90,87,-3,-89,46,42,-177,162,152,316,313,199
83,89,6,-86,38,47,-180,136,124,271,273,182
79,89,10,-84,34,49,-181,113,100,234,242,161
77,89,12,-83,32,50,-181,91,78,201,206,140
72,86,14,-79,28,50,-185,74,60,171,173,122
71,84,12,-78,29,48,-194,62,42,147,150,110
69,79,10,-74,29,44,-200,53,28,125,127,101
71,74,3,-72,34,38,-201,47,15,110,121,95
73,69,-4,-71,38,32,-205,41,3,94,110,92
72,62,-10,-67,40,26,-208,37,-6,79,99,87
75,60,-15,-68,45,22,-211,31,-15,66,93,82
75,59,-16,-67,45,21,-213,22,-22,50,77,75
72,58,-14,-65,42,22,-210,16,-28,40,69,66
66,57,-9,-61,37,23,-206,9,-32,32,56,58
60,54,-6,-57,33,23,-207,5,-34,24,45,51
60,52,-9,-56,34,21,-212,4,-36,19,42,52
61,52,-9,-57,35,21,-214,3,-37,13,34,53
67,54,-12,-61,39,21,-214,5,-40,10,40,55
68,53,-15,-61,41,19,-214,4,-43,6,41,58
64,49,-15,-56,39,16,-211,3,-45,3,42,57
64,45,-18,-54,41,13,-212,0,-48,-1,47,56
59,41,-18,-50,38,11,-216,-6,-50,-9,41,52
58,40,-18,-49,38,11,-212,-9,-51,-13,41,46
58,42,-16,-50,37,13,-206,-13,-50,-16,33,42
53,42,-12,-47,32,15,-206,-14,-48,-17,27,37
51,42,-9,-46,30,16,-211,-14,-47,-15,28,37
51,42,-9,-47,30,16,-213,-16,-47,-14,22,37
59,43,-15,-51,37,14,-213,-17,-49,-8,29,37
64,45,-19,-55,41,13,-212,-18,-51,-7,31,40
66,47,-19,-56,43,13,-207,-18,-51,-8,36,40
69,47,-21,-58,45,13,-205,-17,-53,-9,41,40
65,45,-20,-55,42,12,-206,-18,-53,-13,34,39
62,43,-19,-52,40,12,-203,-17,-53,-13,37,37
56,40,-16,-48,36,12,-199,-18,-51,-13,34,38
50,38,-11,-44,30,13,-197,-18,-50,-13,31,37
47,39,-8,-43,27,15,-200,-17,-52,-13,34,40
45,38,-7,-41,26,15,-199,-17,-52,-13,30,42
47,35,-12,-41,29,11,-195,-14,-53,-11,37,44
49,34,-16,-41,32,9,-193,-12,-55,-10,38,47
49,31,-18,-40,33,6,-190,-8,-58,-9,40,47
52,31,-21,-42,36,5,-189,-5,-58,-7,46,50
52,31,-21,-41,36,4,-191,-5,-56,-8,40,54
51,29,-22,-40,36,3,-187,-7,-55,-8,42,53
48,27,-21,-37,34,2,-182,-11,-55,-10,36,52
46,27,-19,-36,32,4,-183,-14,-53,-11,31,49
50,31,-19,-40,34,6,-190,-15,-53,-9,32,48
49,31,-18,-40,33,6,-193,-17,-52,-9,27,48
50,30,-20,-40,35,4,-191,-16,-52,-7,34,47
50,29,-21,-39,35,3,-190,-17,-52,-4,36,49
47,26,-20,-37,33,3,-188,-17,-51,1,39,49
44,26,-18,-35,31,4,-187,-18,-50,4,44,51
35,24,-10,-30,22,7,-186,-20,-47,3,38,51
32,24,-8,-28,20,7,-183,-20,-46,3,40,49
31,23,-8,-27,19,7,-181,-20,-45,1,35,48
31,23,-8,-27,20,7,-181,-20,-45,-1,30,46
38,26,-12,-32,25,7,-186,-19,-47,-3,31,45
41,27,-13,-34,27,7,-188,-20,-45,-6,24,45
47,30,-17,-38,32,6,-189,-19,-41,-6,29,45
49,31,-18,-40,33,6,-189,-20,-40,-8,29,47
47,30,-17,-39,32,6,-188,-20,-40,-8,30,46
48,29,-19,-39,33,5,-190,-21,-42,-8,36,46
45,27,-18,-36,31,4,-195,-24,-43,-10,31,43
45,26,-19,-35,32,3,-193,-24,-43,-9,34,42
45,26,-19,-35,31,3,-188,-26,-43,-9,30,43
42,24,-17,-33,29,3,-188,-27,-42,-9,27,43
41,24,-17,-33,29,3,-192,-28,-43,-7,29,47
40,22,-18,-31,29,2,-193,-29,-44,-8,24,47
44,22,-22,-33,33,0,-191,-29,-45,-8,30,45
47,23,-24,-35,35,-1,-189,-29,-46,-9,29,45
47,22,-25,-35,35,-1,-186,-29,-46,-9,30,44
48,21,-27,-35,37,-3,-187,-30,-46,-9,34,43
44,18,-27,-31,35,-5,-189,-31,-44,-13,28,42
45,18,-26,-31,35,-4,-185,-30,-43,-14,30,40
45,21,-24,-33,35,-2,-179,-31,-41,-16,24,41
43,22,-21,-33,32,1,-177,-31,-40,-18,20,41
44,25,-18,-34,31,3,-182,-31,-42,-19,21,43
43,26,-16,-35,29,5,-182,-31,-42,-21,17,46
47,28,-19,-38,33,5,-180,-30,-43,-19,25,48
48,29,-19,-39,34,5,-179,-31,-43,-19,25,51
46,27,-19,-37,32,4,-176,-32,-42,-20,25,50
48,30,-18,-39,33,6,-176,-32,-42,-21,28,50
46,32,-14,-39,30,9,-178,-32,-42,-25,21,49
46,34,-12,-40,29,11,-175,-31,-41,-25,23,47
44,34,-11,-39,27,11,-171,-31,-39,-26,18,48
41,32,-8,-36,24,12,-170,-30,-39,-27,15,46
40,32,-8,-36,24,11,-174,-29,-40,-26,17,46
38,30,-8,-34,23,11,-172,-29,-41,-29,13,45
41,29,-12,-35,26,8,-164,-27,-42,-29,20,45
42,28,-14,-35,28,7,-162,-27,-43,-31,19,44
41,26,-15,-33,28,5,-163,-27,-44,-35,19,40
45,26,-19,-36,32,3,-165,-28,-45,-37,22,39
47,25,-22,-36,34,1,-166,-32,-44,-42,15,38
46,25,-21,-35,33,2,-162,-31,-42,-42,18,38
40,24,-16,-32,27,4,-156,-29,-40,-42,14,41
34,20,-14,-27,24,3,-155,-29,-39,-43,12,40
35,17,-17,-26,26,0,-159,-30,-41,-43,14,40
32,14,-18,-23,25,-2,-160,-32,-42,-45,11,40
33,12,-20,-22,26,-4,-159,-32,-42,-44,19,40
30,9,-21,-20,26,-6,-158,-34,-42,-44,20,40
25,4,-21,-15,23,-9,-157,-34,-40,-45,21,38
26,2,-24,-14,25,-11,-158,-34,-40,-43,25,38
24,-1,-25,-12,24,-13,-158,-34,-39,-43,19,36
25,-2,-27,-11,26,-15,-155,-32,-37,-40,23,35
24,-3,-27,-11,25,-15,-150,-30,-34,-40,21,36
22,-6,-28,-8,24,-17,-148,-29,-32,-40,20,36
23,-7,-31,-8,27,-19,-150,-30,-33,-40,23,40
23,-9,-31,-7,27,-20,-151,-30,-31,-41,20,42
26,-7,-34,-9,30,-21,-150,-28,-29,-39,30,42
29,-8,-36,-10,32,-22,-147,-26,-29,-38,31,43
29,-10,-39,-9,34,-25,-141,-25,-30,-36,34,42
33,-11,-44,-11,38,-28,-140,-23,-31,-35,40,43
33,-12,-46,-11,39,-29,-141,-23,-29,-36,36,43
35,-13,-48,-11,41,-31,-138,-19,-28,-34,41,44
34,-13,-47,-10,40,-30,-134,-16,-26,-34,40,46
32,-17,-49,-7,40,-33,-131,-12,-24,-30,41,48
32,-22,-54,-5,43,-38,-132,-7,-23,-23,49,52
32,-25,-57,-4,45,-41,-131,-4,-22,-22,49,55
37,-25,-63,-6,50,-44,-128,0,-22,-20,59,57
38,-28,-66,-5,52,-47,-125,6,-21,-17,64,60
35,-32,-68,-2,51,-50,-119,15,-19,-13,73,60
35,-37,-72,1,53,-55,-117,19,-20,-10,81,61
30,-45,-75,8,53,-61,-116,18,-19,-12,76,60
31,-50,-81,10,55,-65,-113,20,-19,-12,81,58
32,-52,-85,10,58,-69,-111,20,-19,-13,79,59
34,-55,-89,11,61,-73,-108,23,-18,-11,79,60
40,-56,-96,8,68,-76,-106,27,-18,-6,86,65
42,-57,-99,7,70,-78,-105,29,-17,-3,87,67
47,-55,-101,4,74,-78,-104,32,-17,2,99,68
48,-58,-105,5,76,-82,-102,34,-17,5,103,69
45,-66,-110,10,77,-88,-98,38,-15,8,108,68
48,-66,-114,9,81,-91,-95,44,-14,13,118,70
49,-65,-114,8,81,-90,-94,50,-10,16,118,73
51,-66,-117,7,84,-91,-88,55,-8,21,127,74
51,-68,-120,9,85,-94,-82,56,-7,23,125,77
50,-72,-122,11,86,-97,-79,60,-4,26,127,77
53,-74,-127,11,89,-101,-82,64,-3,31,133,79
51,-77,-128,13,89,-103,-79,69,0,33,132,81
52,-78,-131,13,91,-105,-73,77,2,37,142,83
51,-82,-133,16,91,-108,-68,83,4,40,146,86
46,-89,-135,22,90,-112,-63,91,6,45,153,86
45,-94,-139,24,92,-117,-62,96,7,48,160,87
41,-100,-141,30,91,-121,-63,100,7,48,157,86
41,-105,-146,32,93,-125,-60,105,8,50,161,83
41,-108,-148,33,94,-128,-55,108,9,48,156,81
41,-111,-152,35,96,-132,-55,113,10,48,154,77
46,-112,-158,33,101,-135,-58,117,10,50,157,77
46,-116,-162,35,103,-139,-59,120,11,50,154,75
49,-119,-168,35,108,-143,-57,124,11,51,163,73
50,-122,-173,36,111,-148,-55,127,11,52,164,73
50,-127,-177,38,114,-152,-51,130,12,54,168,71
52,-131,-183,39,118,-157,-50,134,13,55,173,69
49,-137,-186,44,117,-162,-49,138,17,54,168,64
49,-140,-189,45,119,-165,-44,141,19,55,170,60
49,-142,-190,47,119,-166,-38,140,19,54,164,59
46,-145,-191,49,118,-168,-36,144,19,54,162,55
47,-146,-193,49,120,-170,-39,150,18,56,165,53
46,-149,-195,52,120,-172,-40,154,18,54,160,50
49,-152,-200,51,124,-176,-39,157,16,53,164,46
51,-150,-201,49,126,-175,-37,160,16,53,161,44
52,-146,-199,47,125,-173,-31,163,18,54,161,41
55,-143,-198,44,126,-171,-32,164,18,56,164,39
52,-144,-196,46,124,-170,-35,163,18,56,159,35
51,-145,-196,47,123,-171,-35,164,17,56,161,32
48,-147,-195,49,121,-171,-32,163,15,52,153,29
46,-148,-194,51,120,-171,-32,161,14,48,148,26
49,-147,-195,49,122,-171,-37,158,11,45,146,27
47,-145,-192,49,119,-169,-40,155,10,42,140,26
48,-142,-190,47,119,-166,-44,154,9,44,146,24
49,-140,-189,45,119,-165,-45,151,9,44,144,23
50,-140,-190,45,120,-165,-42,149,9,44,144,20
52,-139,-192,44,122,-166,-45,146,7,42,145,20
50,-141,-191,45,120,-166,-51,142,5,37,136,18
50,-141,-191,45,120,-166,-52,139,3,34,135,15
48,-141,-189,47,118,-165,-50,135,1,28,125,14
44,-142,-186,49,115,-164,-51,130,-2,23,118,10
43,-141,-184,49,113,-162,-56,124,-8,20,113,9
41,-140,-181,50,111,-161,-60,119,-12,15,103,6
44,-137,-181,47,112,-159,-63,117,-17,13,104,3
44,-135,-179,46,112,-158,-63,112,-20,7,97,2
43,-134,-177,46,110,-156,-58,106,-22,1,93,-2
43,-131,-175,44,109,-153,-59,102,-26,-4,92,-3
40,-129,-169,45,104,-149,-61,96,-29,-11,80,-4
37,-126,-163,44,100,-145,-59,93,-31,-15,78,-5
33,-122,-155,45,94,-139,-56,88,-32,-22,68,-5
27,-121,-148,47,87,-134,-56,82,-33,-27,60,-8
24,-118,-143,47,83,-131,-61,74,-36,-32,55,-9
19,-118,-137,50,77,-127,-63,68,-38,-38,44,-12
17,-117,-133,50,75,-125,-63,64,-40,-41,45,-14
14,-115,-128,51,71,-122,-63,57,-42,-45,38,-16
10,-113,-123,52,66,-118,-61,49,-43,-47,34,-21
10,-109,-119,50,64,-114,-64,41,-47,-50,32,-25
7,-106,-113,50,60,-110,-70,32,-52,-54,21,-31
7,-104,-111,48,59,-108,-70,25,-55,-57,18,-36
5,-103,-109,49,57,-106,-68,16,-57,-63,6,-39
3,-103,-106,50,55,-105,-68,8,-58,-67,-3,-44
5,-101,-106,48,55,-104,-73,-1,-59,-70,-9,-47
3,-99,-102,48,52,-100,-75,-8,-58,-72,-18,-49
4,-95,-98,46,51,-97,-74,-13,-57,-71,-13,-50
3,-92,-95,45,49,-94,-73,-17,-55,-71,-17,-50
0,-92,-92,46,46,-92,-69,-20,-53,-70,-19,-51
-1,-91,-91,46,45,-91,-72,-24,-55,-70,-19,-53
-7,-93,-86,50,40,-90,-78,-29,-57,-72,-26,-59
-11,-93,-83,52,36,-88,-77,-33,-58,-72,-27,-63
-17,-94,-77,55,30,-85,-72,-39,-57,-75,-38,-63
-21,-94,-73,58,26,-84,-69,-43,-57,-76,-44,-64
-21,-94,-73,57,26,-83,-68,-46,-59,-77,-44,-61
-23,-92,-69,58,22,-80,-67,-49,-59,-78,-50,-61
-22,-87,-66,55,22,-77,-66,-49,-57,-77,-43,-60
-23,-86,-62,54,19,-74,-63,-50,-57,-75,-43,-59
-26,-86,-60,56,17,-73,-58,-48,-55,-71,-39,-61
-25,-85,-60,55,17,-73,-58,-44,-56,-67,-35,-62
-26,-86,-59,56,16,-73,-62,-39,-56,-66,-42,-64
-27,-85,-58,56,16,-72,-61,-36,-54,-62,-39,-65
-30,-84,-55,57,12,-69,-59,-38,-50,-59,-44,-64
-33,-86,-53,59,10,-70,-58,-38,-48,-57,-44,-64
-32,-88,-56,60,12,-72,-60,-40,-49,-55,-42,-62
-32,-90,-58,61,12,-74,-62,-44,-49,-57,-47,-62
-27,-91,-63,59,18,-77,-64,-47,-51,-58,-42,-62
-24,-90,-66,57,21,-78,-62,-50,-50,-59,-43,-61
-23,-90,-68,56,22,-79,-56,-52,-48,-57,-40,-62
-18,-88,-69,53,25,-79,-55,-53,-47,-55,-35,-60
-18,-86,-68,52,25,-77,-56,-54,-45,-57,-38,-59
-15,-84,-69,49,27,-76,-55,-52,-43,-57,-32,-58
-15,-83,-68,49,27,-76,-52,-51,-40,-59,-35,-55
-16,-81,-66,48,25,-74,-50,-48,-37,-58,-35,-54
-14,-77,-63,46,25,-70,-52,-46,-36,-55,-33,-50
-15,-75,-60,45,22,-68,-53,-44,-34,-53,-35,-49
-12,-72,-60,42,24,-66,-53,-39,-34,-48,-24,-48
-8,-71,-62,40,27,-67,-52,-38,-36,-48,-23,-47
-4,-72,-67,38,31,-69,-48,-37,-38,-49,-20,-49
-4,-73,-68,38,32,-70,-48,-35,-39,-47,-16,-46
-13,-76,-63,45,25,-70,-50,-33,-37,-47,-19,-44
-15,-79,-63,47,24,-71,-49,-32,-37,-47,-14,-43
-17,-81,-64,49,23,-72,-48,-35,-38,-51,-20,-43
-18,-83,-66,51,24,-75,-49,-36,-39,-53,-22,-46
-14,-84,-70,49,28,-77,-55,-37,-42,-54,-22,-47
-15,-87,-72,51,28,-80,-59,-36,-44,-57,-28,-47
-15,-91,-76,53,30,-83,-63,-34,-49,-57,-21,-45
-15,-92,-78,54,31,-85,-66,-35,-53,-59,-23,-41
-14,-93,-79,53,33,-86,-67,-34,-56,-59,-20,-39
-12,-96,-84,54,35,-90,-74,-34,-63,-59,-17,-40
-16,-102,-86,59,35,-94,-84,-34,-71,-62,-22,-46
-13,-108,-95,61,40,-101,-89,-34,-79,-64,-20,-50
-11,-115,-104,63,47,-109,-91,-37,-87,-71,-30,-51
-9,-120,-111,64,51,-116,-94,-37,-94,-78,-35,-55
-4,-123,-118,63,57,-120,-102,-37,-102,-85,-39,-56
-5,-126,-121,66,58,-124,-108,-38,-107,-91,-47,-58
-3,-128,-125,66,60,-126,-114,-38,-113,-93,-41,-60
-5,-128,-123,67,59,-126,-115,-40,-115,-96,-44,-59
-8,-127,-119,68,55,-123,-110,-40,-113,-97,-41,-57
-9,-125,-116,67,53,-120,-107,-40,-111,-95,-36,-55
-15,-124,-109,69,47,-117,-105,-40,-106,-95,-39,-55
-17,-124,-107,71,45,-116,-96,-37,-102,-93,-34,-55
-22,-126,-104,74,41,-115,-81,-36,-98,-93,-39,-54
-25,-129,-104,77,39,-117,-68,-31,-91,-91,-38,-54
-23,-131,-108,77,42,-119,-60,-26,-85,-86,-36,-50
-24,-132,-108,78,42,-120,-53,-22,-79,-84,-38,-49
-19,-130,-111,74,46,-121,-46,-17,-74,-79,-29,-49
-17,-128,-112,73,47,-120,-36,-13,-68,-77,-28,-46
-16,-127,-111,72,47,-119,-21,-7,-60,-73,-23,-43
-14,-126,-112,70,49,-119,-17,-2,-53,-69,-16,-39
-16,-128,-111,72,47,-119,-18,3,-45,-66,-17,-39
-14,-127,-113,71,50,-120,-14,9,-37,-60,-8,-36
-13,-128,-115,70,51,-121,-7,14,-28,-58,-9,-32
-11,-127,-116,69,52,-122,-2,18,-21,-53,-6,-29
-7,-125,-119,66,56,-122,0,20,-16,-47,-3,-25
-6,-124,-118,65,55,-121,2,23,-10,-40,-3,-21
-3,-121,-118,62,57,-119,4,28,-5,-30,9,-18
-1,-118,-117,59,58,-118,7,31,1,-23,13,-16
1,-116,-117,57,59,-116,14,36,6,-17,21,-18
5,-112,-117,54,61,-115,16,38,12,-13,27,-15
4,-110,-115,53,59,-113,18,38,21,-12,23,-13
3,-106,-110,52,56,-108,24,42,28,-6,29,-10
-2,-102,-99,52,48,-101,32,45,36,-2,26,-6
-4,-98,-94,51,45,-96,36,50,43,3,30,-4
-1,-93,-92,47,46,-93,33,53,46,9,37,-1
-4,-89,-86,47,41,-87,31,54,50,12,36,1
-5,-84,-79,45,37,-82,28,55,53,18,44,5
-5,-80,-74,43,34,-77,26,53,55,20,44,8
-3,-75,-73,39,35,-74,27,53,57,25,50,10
2,-70,-72,34,36,-71,22,51,56,28,56,11
1,-66,-67,33,34,-67,15,48,55,30,54,9
1,-59,-60,29,30,-60,10,45,52,31,59,7
-4,-51,-47,28,22,-49,7,37,49,28,52,6
-8,-46,-39,27,15,-42,4,32,47,27,50,4
-8,-42,-34,25,13,-38,-3,26,43,26,50,6
-11,-38,-28,24,8,-33,-7,21,42,24,45,6
-9,-33,-24,21,8,-29,-10,18,40,23,51,6
-9,-30,-21,19,6,-25,-10,15,39,23,49,7
-9,-28,-20,19,5,-24,-5,16,39,26,52,7
-8,-28,-20,18,6,-24,-8,17,37,27,56,7
-12,-31,-19,21,3,-25,-13,18,35,26,52,3
-9,-30,-21,19,6,-25,-13,19,34,26,54,2
-6,-27,-21,17,7,-24,-11,18,34,24,45,2
-7,-25,-18,16,6,-21,-10,16,33,24,41,0
-7,-20,-13,14,3,-17,-15,11,30,25,37,-1
-10,-19,-9,15,0,-14,-18,7,30,23,31,-2
-8,-18,-10,13,1,-14,-21,4,29,23,37,-1
-12,-18,-6,15,-3,-12,-19,0,30,20,36,1
-19,-18,1,18,-10,-9,-12,-2,34,19,40,1
-20,-16,4,18,-12,-6,-13,-3,34,20,44,2
-24,-16,8,20,-16,-4,-17,-3,34,19,41,1
-22,-15,6,18,-14,-5,-19,-2,34,21,46,2
-20,-16,4,18,-12,-6,-19,-2,34,21,42,5
-16,-15,1,16,-9,-7,-20,-1,35,21,42,7
-8,-12,-5,10,-2,-9,-24,-1,33,21,41,10
-5,-10,-5,8,0,-8,-25,1,33,20,38,12
-1,-7,-6,4,2,-6,-26,5,33,23,47,15
-1,-8,-8,5,3,-8,-27,5,31,23,46,14
-3,-14,-11,9,4,-13,-27,6,29,23,49,10
0,-13,-12,6,6,-12,-31,5,27,23,51,10
0,-9,-8,4,4,-8,-36,4,28,21,45,9
2,-5,-7,2,5,-6,-37,1,26,21,47,6
1,-4,-5,2,3,-5,-37,-7,22,17,37,3
-2,-1,1,2,-2,0,-38,-20,18,13,28,-6
-4,5,8,0,-6,7,-44,-39,10,8,16,-14
-14,7,21,3,-18,14,-43,-57,6,-2,-3,-32
-23,11,34,6,-29,22,-39,-75,3,-11,-13,-56
-35,4,39,16,-37,21,-25,-88,2,-25,-40,-92
-48,-11,37,29,-43,13,-1,-95,3,-39,-68,-141
-60,-31,29,45,-45,-1,21,-96,7,-56,-106,-202
-77,-58,19,68,-48,-20,46,-93,16,-77,-160,-276
-101,-95,6,98,-53,-45,84,-86,30,-93,-211,-364
-134,-141,-8,137,-63,-74,131,-78,50,-112,-278,-463
-174,-199,-26,186,-74,-112,188,-61,78,-128,-345,-575
-216,-265,-49,240,-84,-157,252,-40,111,-143,-416,-692
-263,-339,-76,301,-94,-208,316,-11,150,-150,-490,-820
-308,-418,-110,363,-99,-264,380,26,192,-149,-551,-953
-353,-497,-145,425,-104,-321,438,63,238,-145,-617,-1078
-396,-577,-181,487,-108,-379,493,104,288,-135,-675,-1199
-432,-639,-207,536,-113,-423,527,145,345,-100,-707,-1255
-468,-691,-223,580,-123,-457,547,189,409,-48,-726,-1268
-474,-724,-250,599,-112,-487,561,259,478,37,-673,-1208
-461,-743,-283,602,-89,-513,567,346,550,142,-581,-1093
-424,-738,-315,581,-55,-526,561,437,616,257,-442,-944
-365,-712,-347,539,-9,-530,541,531,677,383,-267,-761
-313,-661,-348,487,18,-505,507,602,730,505,-88,-572
-257,-587,-330,422,37,-459,462,659,775,629,113,-373
-205,-504,-299,354,47,-402,415,689,801,730,286,-194
-154,-413,-259,284,52,-336,371,701,812,817,451,-32
-104,-324,-220,214,58,-272,323,697,806,876,582,98
-61,-238,-177,150,58,-207,275,678,788,909,678,197
-24,-163,-139,94,57,-151,236,647,754,915,742,262
2,-99,-100,48,51,-99,202,601,707,894,763,298
20,-50,-70,15,45,-60,173,550,651,849,751,304
36,-12,-48,-12,42,-30,146,496,585,787,710,293
44,9,-36,-27,40,-13,122,443,521,716,651,277
55,19,-36,-37,45,-8,98,396,456,642,595,259
61,28,-33,-45,47,-2,82,351,395,568,533,245
66,37,-29,-51,47,4,72,310,339,498,481,230
69,45,-24,-57,46,11,58,274,289,436,436,218
63,51,-13,-57,38,19,41,239,247,379,388,201
62,57,-6,-59,34,26,29,206,209,330,352,183
58,62,3,-60,27,33,19,171,175,282,308,163
51,62,11,-57,20,37,8,141,145,241,268,139
46,61,15,-53,15,38,-4,113,118,203,229,119
39,58,19,-49,10,39,-14,90,97,171,192,102
40,57,16,-48,12,37,-23,75,78,147,172,92
43,53,9,-48,17,31,-27,61,61,126,149,87
50,47,-3,-49,26,22,-26,51,45,109,135,82
55,43,-11,-49,33,16,-29,45,32,95,126,80
50,38,-12,-44,31,13,-31,42,25,82,112,75
46,35,-11,-40,28,12,-32,38,18,71,107,68
36,31,-5,-33,21,13,-32,31,12,57,90,60
29,28,-1,-28,14,14,-32,21,6,46,77,50
25,28,2,-27,11,15,-33,8,0,37,62,46
19,27,8,-23,6,17,-36,0,-3,29,48,42
18,28,10,-23,4,19,-40,-1,-4,26,51,41
17,27,9,-22,4,18,-40,-3,-6,21,45,42
20,25,5,-22,7,15,-35,-4,-10,17,47,42
22,22,1,-22,10,12,-35,-5,-14,14,48,42
18,17,-1,-17,9,8,-37,-5,-16,9,43,38
16,13,-3,-14,9,5,-36,-4,-18,5,44,34
10,9,-1,-9,5,4,-33,-7,-20,-3,34,29
8,8,0,-8,4,4,-33,-10,-21,-6,28,23
12,9,-2,-11,7,4,-37,-15,-23,-8,21,19
10,12,2,-11,4,7,-39,-19,-24,-9,12,16
11,17,6,-14,2,12,-41,-20,-25,-7,17,17
12,19,8,-16,2,14,-40,-21,-26,-8,14,19
14,19,5,-17,4,12,-34,-21,-29,-7,19,19
20,19,-1,-20,10,10,-35,-22,-33,-7,23,22
22,18,-5,-20,13,7,-37,-25,-35,-10,20,22
25,16,-8,-20,16,4,-36,-25,-36,-10,25,22
21,13,-8,-17,14,3,-32,-25,-34,-11,19,21
16,10,-6,-13,11,2,-29,-24,-33,-12,17,14
13,9,-4,-11,8,2,-29,-24,-35,-12,14,9
7,7,0,-7,3,3,-30,-25,-34,-13,7,6
6,7,1,-6,3,4,-33,-25,-33,-10,12,10
5,4,-1,-5,3,2,-31,-24,-32,-9,10,14
6,1,-5,-3,5,-2,-24,-21,-31,-6,18,18
8,3,-5,-5,6,-1,-25,-20,-31,-5,23,21
6,6,0,-6,2,3,-30,-22,-30,-6,21,19
5,7,2,-6,1,5,-31,-22,-30,-6,28,18
0,4,5,-2,-3,5,-30,-25,-32,-9,23,17
-3,2,5,0,-4,4,-29,-27,-33,-11,22,13
-1,1,2,0,-2,1,-31,-30,-35,-13,16,11
-1,0,1,1,-2,1,-33,-32,-36,-17,7,7
4,2,-2,-3,3,0,-36,-34,-36,-17,8,5
4,3,-1,-4,3,1,-33,-33,-35,-17,4,7
3,3,0,-3,1,2,-24,-28,-33,-12,10,9
5,4,-1,-4,3,2,-23,-24,-33,-9,13,11
4,4,-1,-4,2,2,-25,-21,-32,-10,9,9
9,2,-6,-5,7,-2,-25,-20,-33,-9,12,7
11,-2,-12,-5,11,-7,-24,-23,-33,-11,4,6
12,-3,-15,-5,13,-9,-21,-24,-34,-14,0,3
15,-1,-17,-7,16,-9,-20,-26,-35,-18,-7,3
12,-2,-14,-5,13,-8,-21,-27,-36,-21,-15,1
10,-4,-14,-3,12,-9,-24,-25,-37,-19,-11,1
8,-5,-13,-1,10,-9,-23,-28,-38,-20,-13,2
7,-7,-14,0,10,-10,-18,-32,-39,-19,-8,2
8,-7,-14,-1,11,-10,-18,-33,-40,-17,-2,4
4,-7,-11,2,7,-9,-19,-33,-39,-16,0,3
2,-7,-9,3,5,-8,-18,-32,-38,-14,7,3
-4,-8,-5,6,0,-6,-14,-33,-37,-15,1,3
-5,-10,-5,8,0,-7,-12,-35,-38,-16,-2,0
-2,-12,-10,7,4,-10,-15,-39,-42,-19,-8,-2
-3,-14,-11,8,3,-12,-18,-41,-43,-22,-15,-4
-1,-14,-13,8,6,-13,-23,-42,-45,-21,-11,-4
0,-15,-15,8,7,-15,-23,-44,-46,-23,-14,-3
2,-17,-18,7,10,-17,-19,-44,-47,-22,-8,-3
4,-17,-22,6,13,-19,-20,-45,-50,-21,-6,-4
2,-19,-22,9,12,-20,-23,-45,-51,-20,-9,-8
3,-21,-23,9,13,-22,-23,-45,-51,-19,-6,-11
-1,-22,-21,12,10,-22,-21,-48,-49,-22,-16,-13
-5,-23,-18,14,6,-20,-19,-51,-48,-22,-17,-13
-7,-22,-15,15,3,-18,-18,-57,-49,-22,-18,-10
-10,-21,-11,15,0,-16,-19,-59,-49,-22,-22,-10
-6,-18,-11,12,2,-14,-22,-58,-49,-19,-17,-8
-5,-16,-11,11,3,-14,-19,-57,-49,-19,-21,-7
-3,-16,-13,10,5,-14,-11,-56,-50,-18,-18,-9
-1,-17,-16,9,7,-16,-9,-55,-50,-16,-18,-9
-3,-20,-16,12,6,-18,-9,-52,-48,-15,-23,-11
-5,-22,-17,13,6,-19,-7,-53,-47,-14,-21,-12
-11,-25,-13,18,1,-19,-3,-56,-44,-15,-28,-12
-16,-25,-8,20,-4,-16,1,-59,-41,-15,-28,-13
-19,-22,-3,20,-8,-12,3,-63,-41,-15,-30,-11
-22,-19,3,21,-13,-7,1,-69,-41,-18,-35,-14
-20,-14,6,17,-13,-4,-6,-74,-44,-20,-32,-17
-19,-12,7,15,-13,-2,-5,-78,-46,-26,-38,-18
-16,-12,4,14,-10,-3,3,-80,-47,-31,-38,-19
-13,-11,2,12,-7,-4,5,-81,-48,-38,-38,-19
-14,-12,2,13,-8,-5,4,-80,-47,-47,-41,-23
-13,-12,1,12,-7,-5,4,-81,-48,-54,-38,-24
-15,-13,2,14,-9,-5,6,-83,-48,-64,-45,-25
-14,-15,-1,14,-7,-7,8,-86,-50,-73,-49,-29
-9,-16,-7,12,-1,-11,7,-90,-53,-83,-56,-33
-10,-17,-7,14,-2,-12,5,-93,-54,-92,-64,-37
-10,-16,-7,13,-2,-11,2,-94,-54,-98,-62,-39
-13,-17,-4,15,-5,-10,3,-97,-54,-104,-67,-39
-17,-18,-1,17,-8,-9,10,-99,-54,-108,-64,-39
-17,-17,0,17,-9,-8,12,-100,-52,-108,-60,-35
-20,-16,4,18,-12,-6,12,-98,-48,-107,-58,-33
-20,-16,4,18,-12,-6,11,-100,-48,-107,-51,-31
-25,-18,7,21,-16,-6,9,-105,-49,-113,-56,-31
-27,-20,7,23,-17,-6,11,-108,-50,-115,-57,-33
-26,-21,6,23,-16,-7,12,-112,-51,-118,-60,-33
-29,-23,5,26,-17,-9,13,-113,-50,-120,-65,-35
-26,-25,2,25,-14,-11,11,-113,-50,-119,-60,-36
-26,-27,-1,27,-13,-14,13,-116,-50,-122,-63,-37
-25,-29,-5,27,-10,-17,19,-119,-51,-123,-60,-40
-23,-31,-8,27,-8,-19,18,-122,-51,-123,-58,-42
-27,-34,-7,30,-10,-20,16,-123,-49,-123,-61,-47
-29,-35,-6,32,-12,-20,18,-124,-47,-124,-59,-50
-36,-36,-1,36,-18,-18,22,-126,-45,-129,-70,-51
-42,-38,4,40,-23,-17,28,-125,-43,-130,-71,-53
-45,-39,6,42,-26,-16,31,-124,-42,-130,-72,-51
-49,-41,8,45,-29,-16,33,-123,-40,-130,-74,-50
-46,-41,5,43,-25,-18,31,-121,-37,-126,-66,-48
-45,-42,2,43,-24,-20,32,-119,-36,-124,-67,-48
-41,-43,-2,42,-20,-22,38,-115,-35,-122,-60,-49
-39,-44,-5,41,-17,-24,38,-112,-35,-120,-57,-48
-41,-47,-6,44,-18,-26,37,-107,-34,-120,-60,-49
-41,-47,-6,44,-17,-27,39,-102,-32,-118,-54,-47
-45,-48,-3,47,-21,-26,43,-99,-29,-120,-58,-45
-48,-50,-2,49,-23,-26,48,-95,-27,-118,-56,-46
-50,-53,-3,51,-24,-28,50,-92,-27,-116,-56,-45
-53,-54,-2,54,-26,-28,49,-91,-24,-116,-59,-47
-49,-53,-4,51,-23,-28,44,-90,-23,-114,-53,-48
-50,-54,-5,52,-23,-29,46,-88,-21,-114,-55,-49
-50,-56,-7,53,-22,-31,55,-84,-18,-111,-47,-50
-50,-61,-10,55,-20,-35,56,-82,-18,-110,-44,-53
-56,-68,-13,62,-22,-40,56,-80,-18,-110,-46,-60
-56,-73,-18,65,-19,-45,58,-77,-14,-110,-44,-66
-59,-79,-20,69,-20,-49,63,-75,-5,-112,-54,-71
-61,-82,-21,71,-20,-51,69,-70,1,-112,-55,-77
-62,-83,-21,72,-20,-52,73,-65,5,-111,-58,-80
-65,-89,-24,77,-21,-56,74,-60,5,-112,-63,-85
-65,-97,-32,81,-17,-64,71,-55,1,-111,-59,-88
-66,-104,-38,85,-14,-71,71,-53,-3,-113,-62,-90
-65,-111,-46,88,-10,-78,75,-51,-7,-114,-57,-92
-64,-117,-52,90,-6,-84,72,-48,-13,-115,-56,-93
-67,-123,-57,95,-5,-90,66,-45,-17,-117,-60,-97
-65,-126,-61,95,-2,-93,62,-43,-23,-118,-58,-98
-66,-127,-62,97,-2,-94,59,-42,-28,-121,-67,-99
-66,-128,-61,97,-3,-94,56,-41,-32,-122,-70,-103
-66,-126,-60,96,-3,-93,51,-42,-35,-124,-77,-105
-67,-128,-62,98,-3,-95,45,-41,-40,-127,-85,-110
-63,-131,-69,97,3,-100,35,-38,-49,-128,-82,-114
-58,-133,-75,96,8,-104,32,-37,-54,-133,-88,-119
-49,-134,-85,92,18,-109,36,-33,-58,-136,-86,-126
-40,-135,-96,88,28,-115,32,-31,-64,-140,-88,-128
-34,-139,-105,86,35,-121,27,-29,-68,-143,-94,-130
-26,-139,-113,82,43,-126,23,-24,-70,-142,-87,-128
-22,-139,-117,81,47,-127,22,-19,-69,-142,-88,-121
-16,-139,-123,78,53,-131,21,-13,-69,-137,-82,-118
-8,-139,-131,73,62,-135,18,-9,-71,-132,-81,-115
-6,-142,-136,74,65,-139,13,-5,-72,-128,-81,-111
-3,-144,-141,74,69,-143,5,0,-73,-121,-73,-103
2,-144,-146,71,73,-144,2,4,-74,-117,-72,-94
12,-140,-152,64,82,-146,5,9,-74,-110,-61,-85
17,-136,-153,60,85,-145,0,14,-75,-102,-52,-78
15,-135,-150,60,82,-142,-6,19,-74,-95,-47,-76
17,-131,-148,57,82,-139,-9,24,-75,-87,-35,-72
16,-128,-144,56,79,-136,-11,25,-76,-84,-36,-68
18,-125,-144,53,81,-134,-6,28,-76,-80,-31,-63
24,-121,-145,49,84,-133,0,28,-77,-78,-31,-54
22,-120,-141,49,81,-130,6,34,-72,-75,-29,-45
20,-117,-137,49,78,-127,10,43,-67,-68,-16,-34
18,-112,-131,47,74,-121,17,50,-63,-64,-11,-25
20,-105,-126,43,73,-115,27,58,-60,-59,3,-19
20,-99,-119,39,69,-109,30,63,-60,-54,11,-14
15,-95,-109,40,62,-102,31,66,-58,-52,13,-14
14,-91,-106,38,60,-98,33,65,-58,-50,18,-12
12,-90,-102,39,57,-96,35,61,-56,-55,10,-11
11,-88,-99,38,55,-93,38,62,-55,-56,8,-13
12,-84,-96,36,53,-89,39,64,-54,-57,1,-13
11,-78,-89,33,49,-83,37,61,-51,-58,-4,-14
14,-68,-83,27,48,-75,32,55,-49,-57,2,-11
17,-58,-75,21,46,-66,33,51,-45,-56,1,-8
22,-47,-69,12,45,-58,40,52,-39,-51,10,-6
25,-36,-61,6,43,-48,39,52,-36,-47,15,0
22,-28,-51,3,36,-39,37,52,-32,-43,17,4
25,-22,-47,-1,36,-35,34,49,-31,-38,26,10
25,-20,-45,-3,35,-32,30,44,-30,-34,24,15
27,-19,-45,-4,36,-32,32,43,-29,-30,28,18
28,-18,-46,-5,37,-32,35,42,-28,-27,25,22
25,-19,-44,-3,34,-31,36,42,-24,-25,21,23
23,-19,-42,-2,32,-30,34,44,-19,-22,23,26
19,-20,-39,0,29,-29,34,42,-16,-21,19,28
19,-19,-38,0,28,-28,37,41,-15,-19,24,27
19,-17,-36,-1,27,-26,35,37,-13,-17,23,27
16,-15,-31,-1,23,-22,34,34,-10,-16,19,23
17,-10,-27,-4,22,-18,32,33,-9,-12,21,21
15,-5,-20,-5,17,-12,29,32,-7,-12,12,18
16,0,-16,-8,16,-8,28,30,-9,-14,8,15
20,6,-14,-13,17,-4,25,26,-12,-20,-2,13
18,8,-10,-13,14,-1,21,23,-13,-24,-12,12
18,10,-9,-14,13,1,15,21,-15,-24,-13,15
15,11,-4,-13,9,4,11,15,-18,-27,-19,16
13,14,0,-13,6,7,12,9,-22,-27,-14,14
14,16,2,-15,6,9,8,7,-25,-27,-14,15
13,16,3,-14,5,10,6,11,-25,-27,-17,12
15,17,2,-16,6,10,5,12,-25,-26,-14,12
13,17,4,-15,4,10,6,10,-22,-28,-21,11
13,16,3,-15,5,10,7,8,-24,-27,-19,10
16,17,1,-16,7,9,4,2,-28,-26,-20,10
13,18,5,-15,4,12,0,0,-29,-25,-22,11
12,22,10,-17,1,17,-5,-1,-29,-22,-17,15
12,26,13,-19,-1,20,-8,-6,-31,-22,-20,14
16,29,13,-23,1,22,-7,-10,-33,-21,-13,8
16,31,16,-23,0,24,-11,-19,-36,-23,-16,2
8,30,22,-19,-7,27,-16,-28,-38,-25,-25,-9
4,34,30,-19,-14,33,-20,-43,-43,-29,-31,-19
-5,39,44,-17,-25,42,-24,-65,-49,-38,-50,-30
-17,41,58,-12,-38,50,-18,-86,-54,-48,-67,-52
-31,41,72,-5,-52,57,-9,-111,-60,-61,-93,-79
-48,29,77,10,-63,53,13,-123,-57,-76,-126,-120
-61,11,72,25,-67,42,42,-125,-50,-90,-156,-168
-80,-16,64,48,-73,25,83,-117,-34,-106,-203,-232
-101,-49,52,75,-77,2,135,-99,-13,-120,-248,-308
-135,-96,38,115,-87,-29,194,-77,16,-129,-298,-401
-182,-158,24,170,-103,-66,262,-50,54,-134,-353,-512
-226,-228,-1,227,-113,-114,332,-16,96,-138,-411,-632
-277,-307,-30,292,-124,-168,406,21,144,-145,-486,-762
-327,-388,-60,357,-134,-224,473,57,187,-148,-554,-895
-379,-470,-91,425,-145,-280,532,90,225,-152,-627,-1027
-434,-551,-116,493,-159,-333,570,117,257,-152,-694,-1141
-486,-628,-142,557,-172,-385,588,141,282,-149,-748,-1237
-518,-685,-167,601,-175,-426,596,171,312,-127,-776,-1264
-530,-726,-196,628,-167,-460,597,209,344,-88,-770,-1241
-521,-750,-229,636,-147,-489,578,264,376,-21,-709,-1154
-500,-763,-263,632,-119,-513,548,334,410,67,-604,-1019
-453,-743,-289,598,-82,-516,507,400,438,161,-458,-851
-392,-698,-307,545,-43,-502,458,463,463,259,-294,-654
-331,-632,-301,482,-16,-466,411,513,493,363,-115,-464
-271,-548,-277,409,3,-412,363,551,525,471,66,-275
-215,-459,-244,337,14,-351,310,573,544,562,223,-111
-158,-364,-205,261,23,-284,253,579,549,642,370,33
-110,-274,-164,192,26,-219,206,569,543,693,473,141
-67,-188,-122,127,27,-154,168,547,528,726,556,216
-35,-120,-86,78,25,-103,136,513,502,729,596,257
-16,-69,-53,42,18,-61,113,470,470,709,601,267
-1,-29,-28,15,13,-28,96,426,431,671,583,263
4,-2,-6,-1,5,-4,85,380,388,615,533,249
9,17,9,-13,0,13,81,338,345,558,484,231
13,31,18,-22,-2,25,78,298,302,497,427,215
15,43,28,-29,-7,36,70,263,265,439,374,199
19,56,37,-37,-10,47,57,231,230,387,331,185
19,68,48,-44,-15,58,52,200,200,339,288,174
21,81,60,-51,-20,71,52,170,172,299,258,162
19,88,70,-54,-26,79,48,142,147,263,227,149
11,89,79,-50,-34,84,42,118,125,230,194,131
10,91,82,-51,-36,87,36,97,104,200,166,111
9,91,82,-50,-37,87,30,80,85,168,128,91
7,87,80,-47,-37,84,29,67,70,144,103,75
5,80,76,-42,-36,78,29,56,58,124,77,65
2,72,69,-37,-34,71,27,50,49,108,56,59
6,65,59,-35,-27,62,20,46,40,98,46,59
7,58,51,-32,-23,55,18,41,31,85,33,57
9,54,45,-32,-18,50,21,38,22,75,33,52
9,53,45,-31,-18,49,19,31,15,65,28,48
2,53,51,-28,-25,52,16,24,10,57,21,40
1,57,56,-29,-28,57,11,18,6,51,17,37
-3,60,63,-28,-34,62,6,12,5,43,3,38
-3,63,66,-30,-35,65,5,9,3,40,1,36
0,64,65,-32,-33,65,5,6,0,37,-2,36
1,64,64,-32,-32,64,3,7,-1,33,-8,37
6,65,59,-36,-27,63,-1,9,-2,31,-7,40
10,65,55,-37,-23,60,0,10,-2,27,-14,39
17,65,48,-41,-16,57,6,9,-3,26,-13,34
17,64,47,-41,-15,56,7,8,-4,23,-19,27
8,61,52,-35,-22,57,7,7,-3,21,-29,15
6,62,55,-34,-25,59,6,4,-6,17,-34,10
3,63,60,-33,-29,62,5,1,-7,10,-49,10
-1,60,61,-29,-32,61,7,0,-8,8,-51,10
-6,54,60,-24,-34,58,10,0,-8,8,-53,14
-10,50,60,-20,-35,55,9,0,-8,7,-53,16
-6,50,56,-22,-32,53,3,1,-10,7,-45,22
-4,50,54,-23,-30,53,2,1,-11,5,-45,24
1,52,51,-27,-25,52,6,2,-12,4,-34,23
5,54,49,-30,-22,52,6,0,-12,3,-30,20
6,54,49,-30,-22,52,6,-1,-11,2,-30,12
7,54,47,-31,-21,51,3,-4,-14,0,-29,7
3,52,49,-27,-23,51,-1,-8,-17,-7,-42,2
2,49,47,-25,-23,49,-1,-10,-19,-11,-46,-2
2,46,45,-24,-22,46,-2,-13,-22,-16,-55,-2
-1,44,46,-22,-24,45,-1,-10,-21,-17,-60,-2
-1,45,46,-22,-24,46,-2,-4,-19,-15,-57,2
-2,46,48,-22,-26,47,0,-2,-19,-15,-61,4
-1,48,50,-24,-26,49,4,-2,-20,-13,-55,4
-2,49,51,-23,-27,50,4,-4,-21,-10,-53,7
-8,47,54,-20,-31,51,4,-5,-19,-6,-51,6
-8,48,56,-20,-32,53,2,-7,-22,-2,-45,5
-11,49,61,-19,-36,55,0,-10,-26,-3,-50,2
-13,50,63,-18,-38,56,3,-11,-28,-1,-49,0
-15,48,63,-17,-40,56,9,-14,-29,-1,-56,0
-16,46,62,-15,-40,55,9,-14,-28,-2,-62,-1
-12,45,57,-16,-35,51,3,-12,-28,0,-62,-1
-10,42,52,-16,-32,48,1,-13,-28,-2,-69,-2
-5,41,46,-18,-26,44,1,-14,-29,-2,-64,-3
-3,43,46,-20,-25,44,1,-16,-30,-3,-64,-1
-5,45,50,-20,-28,48,2,-17,-29,-3,-64,1
-2,48,50,-23,-27,50,3,-18,-28,-2,-60,1
-4,49,53,-23,-29,51,3,-19,-24,-3,-68,-2
-5,49,54,-22,-30,52,6,-21,-22,-4,-70,-4
-7,48,55,-21,-31,52,9,-25,-24,-7,-78,-4
-10,47,57,-18,-34,52,10,-26,-23,-8,-83,-3
-9,47,56,-19,-33,52,7,-26,-24,-6,-80,1
-9,47,56,-19,-33,52,9,-26,-23,-8,-83,6
-6,48,54,-21,-30,52,15,-23,-23,-7,-75,11
-4,48,52,-22,-29,50,16,-24,-24,-6,-75,11
-6,45,51,-19,-29,48,16,-25,-25,-5,-77,5
-3,46,49,-21,-27,48,15,-26,-27,-4,-77,1
-3,47,51,-22,-27,49,15,-27,-28,-8,-89,-3
-6,48,54,-21,-30,51,18,-27,-28,-7,-91,-6
-12,47,59,-18,-36,54,24,-29,-27,-6,-98,-6
-15,46,62,-16,-39,54,24,-31,-26,-5,-103,-6
-12,47,59,-17,-36,53,18,-35,-27,-3,-100,-4
-13,44,57,-15,-36,51,16,-39,-29,-5,-107,-6
-13,39,53,-13,-33,46,17,-42,-33,-7,-105,-12
-14,39,52,-13,-33,46,17,-44,-35,-9,-108,-12
-17,40,56,-12,-37,48,18,-45,-34,-12,-111,-11
-15,45,60,-15,-38,53,17,-49,-33,-13,-109,-10
-17,51,67,-17,-43,59,13,-54,-32,-17,-115,-10
-18,55,72,-19,-45,64,15,-56,-30,-17,-114,-11
-20,58,77,-19,-49,68,18,-56,-28,-17,-119,-11
-22,57,79,-17,-51,68,19,-55,-27,-18,-125,-11
-20,54,74,-17,-48,65,16,-55,-29,-17,-125,-9
-23,50,73,-14,-48,62,15,-56,-30,-18,-130,-8
-24,47,71,-11,-48,59,16,-56,-30,-17,-124,-8
-25,44,69,-10,-47,57,15,-60,-28,-18,-123,-7
-27,41,68,-7,-48,55,13,-66,-23,-19,-124,-9
-25,42,66,-8,-46,54,11,-70,-23,-21,-122,-9
-26,42,68,-8,-48,55,9,-75,-25,-26,-131,-11
-25,42,66,-9,-46,54,11,-80,-27,-28,-133,-15
-22,41,64,-9,-44,53,13,-87,-30,-30,-142,-17
-25,42,67,-9,-46,55,14,-91,-30,-31,-148,-18
-25,46,71,-11,-48,59,11,-92,-30,-29,-145,-15
-26,49,75,-12,-51,62,12,-95,-30,-30,-150,-15
-22,53,76,-15,-49,65,16,-96,-31,-29,-144,-17
-21,54,74,-17,-48,64,17,-98,-32,-30,-146,-17
-22,50,72,-14,-48,62,20,-97,-30,-32,-150,-20
-18,48,66,-15,-43,57,17,-97,-31,-33,-148,-18
-17,44,60,-14,-39,53,12,-99,-31,-36,-155,-15
-18,41,59,-12,-39,51,13,-100,-32,-35,-152,-12
-23,40,63,-8,-43,52,16,-103,-34,-34,-153,-8
-29,39,68,-5,-49,54,17,-105,-33,-34,-156,-9
-31,41,71,-5,-51,56,14,-107,-32,-34,-156,-11
-29,43,72,-7,-51,58,13,-109,-30,-36,-163,-14
-20,47,67,-14,-44,57,15,-109,-29,-35,-161,-18
-18,51,69,-16,-44,60,18,-109,-27,-34,-162,-17
-24,53,76,-14,-51,65,24,-108,-21,-31,-162,-15
-24,54,78,-15,-52,67,27,-103,-18,-25,-157,-11
-27,53,80,-13,-54,67,27,-98,-15,-23,-162,-8
-28,52,79,-12,-54,66,30,-95,-13,-20,-159,-8
-29,49,78,-10,-54,64,34,-95,-13,-21,-161,-8
-30,48,78,-9,-54,63,36,-96,-11,-21,-162,-6
-26,50,76,-12,-51,63,36,-96,-10,-19,-156,0
-28,48,76,-10,-53,62,39,-96,-7,-18,-158,5
-30,45,74,-8,-52,60,44,-93,-5,-15,-150,9
-29,44,73,-7,-52,59,47,-92,-3,-12,-146,13
-29,43,73,-7,-51,58,49,-90,-1,-8,-141,13
-26,43,68,-9,-48,56,49,-84,0,-4,-133,14
-26,40,65,-7,-46,53,48,-77,4,-4,-136,13
-25,37,62,-6,-44,50,51,-74,6,-1,-134,12
-27,34,61,-4,-44,48,56,-76,6,-1,-139,12
-29,32,61,-2,-45,47,57,-75,7,1,-142,12
-27,34,60,-4,-44,47,51,-73,7,5,-137,14
-27,34,61,-4,-44,48,51,-70,7,6,-140,11
-24,35,59,-6,-42,47,56,-64,7,7,-133,5
-25,34,59,-5,-42,47,60,-59,9,9,-133,0
-30,31,61,0,-46,46,67,-54,13,11,-133,-6
-31,25,56,3,-44,41,69,-50,15,15,-130,-7
-34,16,51,9,-43,34,69,-48,18,17,-136,-6
-36,12,48,12,-42,30,72,-43,20,20,-133,-6
-38,11,48,14,-44,30,76,-38,21,20,-134,-5
-43,7,50,18,-47,29,77,-33,22,20,-136,-4
-44,4,49,20,-47,27,74,-29,19,22,-134,-1
-43,2,45,21,-45,24,75,-27,18,22,-138,-1
-35,1,36,17,-36,19,80,-25,18,24,-130,-4
-31,-3,28,17,-30,13,81,-24,16,24,-132,-7
-30,-10,21,20,-26,6,82,-21,15,24,-134,-13
-26,-11,15,18,-21,2,80,-21,13,23,-133,-17
-24,-12,13,18,-19,1,77,-22,14,20,-142,-22
-24,-11,13,18,-19,1,79,-19,14,21,-142,-27
-29,-12,17,20,-23,3,83,-16,14,22,-149,-30
-30,-13,17,22,-24,2,81,-14,12,21,-155,-35
-25,-13,12,19,-19,0,73,-13,7,20,-156,-39
-22,-15,7,19,-15,-4,68,-13,3,16,-163,-42
-17,-17,0,17,-9,-8,66,-12,-1,16,-158,-45
-15,-18,-3,16,-6,-10,62,-11,-5,15,-158,-42
-15,-20,-4,17,-6,-11,58,-9,-7,16,-157,-40
-11,-16,-5,14,-4,-10,56,-7,-7,18,-149,-38
-10,-12,-2,11,-4,-6,55,-4,-1,16,-149,-37
-8,-10,-2,9,-3,-6,59,-1,0,16,-145,-37
-8,-11,-3,9,-3,-6,63,0,-3,14,-149,-35
-8,-14,-5,11,-2,-9,65,0,-3,14,-152,-37
-5,-16,-11,10,2,-13,64,0,-4,16,-149,-37
-5,-18,-13,12,3,-15,64,1,-2,15,-154,-38
-3,-20,-16,11,6,-18,64,5,-1,15,-149,-39
-4,-19,-15,12,5,-17,64,6,-4,15,-148,-37
-8,-18,-11,13,1,-14,66,6,-8,16,-145,-35
-7,-17,-10,12,1,-13,62,4,-14,17,-140,-35
-9,-17,-7,13,-1,-12,55,1,-19,14,-144,-40
-7,-15,-8,11,0,-11,55,0,-22,11,-144,-43
-5,-13,-8,9,1,-10,57,-3,-24,5,-153,-43
-4,-10,-6,6,1,-8,56,-3,-24,2,-158,-42
1,-4,-5,2,3,-5,49,-1,-25,1,-156,-39
0,-4,-4,2,2,-4,47,-1,-25,-1,-158,-33
1,-5,-6,2,3,-5,49,0,-26,1,-147,-27
0,-5,-6,3,2,-5,51,0,-27,2,-142,-20
-3,-7,-3,5,-1,-5,54,1,-26,3,-134,-15
-1,-5,-4,3,1,-4,53,1,-28,5,-126,-15
-1,-3,-3,2,1,-2,49,0,-28,3,-129,-20
1,1,-1,-1,1,0,51,0,-27,4,-127,-23
2,6,4,-4,-1,5,56,-1,-26,3,-136,-22
2,8,6,-5,-3,7,56,-2,-23,2,-142,-22
5,9,4,-7,0,7,51,-3,-21,2,-142,-18
1,10,10,-6,-5,10,47,-6,-21,1,-147,-14
-4,13,17,-5,-11,16,46,-7,-22,3,-142,-10
-6,16,22,-5,-15,20,47,-8,-22,6,-141,-6
-8,18,26,-5,-18,23,50,-7,-21,10,-136,-4
-7,20,26,-7,-17,23,49,-8,-24,11,-133,-7
-8,18,27,-5,-18,23,47,-11,-27,6,-142,-15
-7,16,23,-5,-15,20,50,-10,-27,3,-145,-18
-6,13,18,-4,-12,16,56,-9,-26,0,-157,-17
-5,8,13,-2,-10,11,57,-8,-25,0,-161,-16
0,4,5,-2,-3,5,52,-9,-27,1,-158,-13
2,3,1,-3,0,3,51,-11,-29,-2,-163,-13
7,5,-2,-6,4,2,52,-13,-32,-5,-157,-14
9,6,-3,-7,5,2,54,-13,-33,-9,-158,-14
6,5,-2,-6,3,2,59,-9,-32,-10,-158,-14
7,6,-1,-7,3,3,60,-6,-32,-10,-155,-13
3,7,4,-5,-1,6,60,-3,-31,-10,-162,-11
3,8,5,-6,-2,7,62,-2,-31,-10,-158,-11
2,9,7,-6,-3,8,64,-5,-32,-12,-162,-11
0,9,9,-4,-5,9,64,-6,-32,-13,-163,-15
1,10,9,-6,-5,10,60,-9,-32,-11,-162,-18
0,11,11,-5,-6,11,59,-10,-32,-13,-169,-22
3,12,9,-7,-4,11,60,-11,-33,-13,-166,-27
6,12,6,-9,0,9,62,-14,-34,-15,-170,-30
9,11,2,-10,3,7,66,-17,-34,-15,-172,-34
10,11,1,-11,4,7,64,-19,-35,-14,-169,-31
5,11,6,-8,-1,9,60,-20,-33,-16,-173,-27
4,11,6,-8,-2,9,62,-19,-32,-12,-165,-20
5,10,5,-8,0,8,65,-19,-31,-9,-162,-10
5,9,4,-7,0,6,67,-17,-30,-7,-159,-6
8,9,1,-9,3,5,65,-16,-28,-5,-152,-2
7,10,3,-8,2,6,65,-11,-25,-4,-152,2
8,12,4,-10,1,8,68,-4,-23,1,-140,6
7,12,5,-10,1,9,70,1,-22,3,-137,7
4,10,6,-7,-2,8,73,7,-21,5,-134,3
4,7,3,-6,0,5,72,9,-22,6,-131,-1
1,3,2,-2,-1,2,68,8,-21,3,-139,-8
0,0,-1,0,0,0,70,9,-21,3,-141,-13
-1,-3,-2,2,0,-2,74,9,-23,1,-152,-16
-2,-3,-1,2,-1,-2,75,10,-23,0,-158,-18
3,1,-2,-2,2,0,72,9,-25,0,-159,-16
4,3,-1,-4,2,1,70,9,-25,0,-163,-16
8,6,-3,-7,5,2,70,9,-26,3,-155,-16
11,8,-3,-10,7,3,69,9,-26,5,-155,-13
13,10,-2,-12,7,4,70,10,-26,7,-153,-11
14,14,0,-14,7,7,68,10,-26,9,-146,-7
10,16,6,-13,1,11,66,10,-24,8,-147,-3
10,18,8,-14,1,13,69,10,-24,9,-141,-1
11,19,8,-16,1,14,75,10,-24,8,-145,1
10,19,10,-15,0,15,78,12,-22,8,-146,0
11,20,9,-16,0,15,78,15,-19,10,-143,2
7,17,10,-12,-2,14,76,15,-17,9,-147,2
7,13,7,-10,0,10,73,15,-18,9,-141,3
7,11,4,-9,1,7,73,13,-17,7,-141,2
7,8,1,-8,2,5,77,12,-15,6,-137,-2
10,9,-1,-9,5,4,75,12,-14,7,-133,-1
8,9,1,-9,3,5,70,13,-12,6,-140,0
8,9,1,-9,3,5,70,15,-11,6,-136,0
5,7,1,-6,1,5,72,16,-11,4,-138,-1
2,5,3,-4,-1,4,73,18,-10,2,-142,-1
2,4,2,-3,0,3,69,19,-12,1,-145,2
-1,5,6,-2,-4,5,69,19,-12,0,-149,5
-1,8,9,-4,-6,9,71,18,-12,3,-140,10
-3,8,11,-3,-8,10,73,16,-13,6,-138,13
-7,6,13,0,-10,10,77,15,-13,10,-134,12
-5,6,11,-1,-8,8,75,14,-16,10,-130,9
-6,3,9,1,-8,6,68,12,-18,6,-136,2
-2,1,3,0,-3,3,69,10,-19,4,-137,-2
2,-1,-4,-1,2,-2,74,4,-20,-1,-147,-1
4,-1,-5,-2,4,-3,75,4,-17,-1,-149,0
8,3,-5,-6,6,-1,73,7,-13,4,-144,5
10,4,-6,-7,7,0,71,9,-12,6,-145,5
16,6,-9,-11,12,-1,70,12,-12,11,-137,5
21,8,-13,-14,16,-3,70,12,-14,12,-137,5
24,7,-17,-16,20,-4,74,12,-14,11,-136,3
28,9,-19,-18,23,-5,72,13,-15,14,-133,4
26,9,-16,-18,20,-3,68,13,-14,15,-137,3
23,10,-13,-17,17,-1,71,13,-13,18,-132,4
16,9,-7,-13,11,1,78,9,-11,18,-134,8
11,9,-2,-11,6,4,78,9,-10,17,-134,10
12,12,0,-13,6,6,72,10,-12,15,-132,15
13,13,0,-13,6,7,70,11,-13,11,-135,13
19,15,-4,-17,11,5,71,14,-13,12,-127,8
18,13,-5,-16,11,4,73,17,-13,10,-128,7
12,9,-4,-11,7,3,79,21,-12,9,-128,8
9,5,-5,-7,7,0,78,23,-13,8,-125,10
2,-2,-4,0,3,-3,74,22,-13,5,-130,10
1,-5,-6,2,3,-5,76,24,-14,4,-125,9
-1,-7,-6,4,2,-6,80,24,-13,1,-129,7
-2,-10,-8,6,2,-9,81,24,-13,-2,-133,3
1,-12,-12,5,6,-12,77,22,-15,-4,-136,1
-2,-13,-11,7,4,-11,75,19,-16,-7,-143,0
-3,-11,-8,6,2,-9,74,18,-20,-5,-136,2
-3,-7,-4,5,0,-6,75,15,-21,-6,-135,4
-4,-4,0,3,-2,-2,80,13,-20,-6,-129,1
1,-2,-3,0,1,-2,78,11,-21,-6,-123,1
3,-4,-7,0,5,-5,73,10,-21,-8,-127,1
10,-3,-14,-4,11,-8,73,11,-23,-8,-122,1
17,-3,-20,-7,18,-11,74,10,-26,-11,-127,2
13,-3,-17,-5,15,-10,74,10,-26,-10,-129,0
7,-4,-10,-2,8,-7,71,10,-25,-7,-128,-1
2,-6,-8,2,4,-7,69,10,-25,-7,-133,-4
4,-9,-12,2,8,-10,68,11,-26,-7,-129,-8
9,-9,-18,-1,13,-13,72,11,-27,-8,-132,-6
17,-8,-24,-5,20,-16,81,13,-25,-8,-132,-3
22,-5,-27,-9,24,-16,81,14,-25,-5,-126,1
19,-3,-23,-8,20,-13,78,14,-24,-4,-124,2
17,0,-17,-9,17,-8,78,15,-24,-3,-117,3
13,4,-9,-9,11,-3,80,14,-24,-4,-121,5
8,6,-2,-7,4,2,81,16,-24,-3,-118,4
6,9,3,-7,1,6,78,19,-24,0,-110,5
1,7,6,-5,-3,7,75,20,-26,0,-112,5
1,5,4,-3,-2,5,73,22,-29,2,-106,4
1,3,2,-3,-1,3,72,21,-31,5,-109,5
1,1,0,-2,0,1,74,20,-32,11,-110,4
3,1,-2,-3,2,0,73,18,-34,13,-107,4
2,-1,-3,-1,2,-2,70,16,-34,10,-112,3
3,0,-3,-1,2,-2,71,15,-35,10,-109,-1
1,0,-1,-1,1,0,73,14,-37,9,-116,-4
2,0,-2,-1,1,-1,73,15,-37,7,-123,-7
7,1,-6,-4,6,-2,69,16,-38,5,-130,-6
9,1,-8,-5,8,-4,69,17,-37,4,-134,-5
15,2,-13,-9,13,-5,71,19,-35,6,-121,-2
19,4,-15,-11,16,-5,72,16,-36,6,-118,-2
20,4,-16,-12,17,-6,75,14,-38,7,-114,-8
22,5,-17,-14,19,-6,72,15,-38,7,-113,-8
19,4,-15,-12,17,-5,67,18,-36,4,-123,-8
21,7,-14,-15,17,-3,67,20,-36,6,-119,-5
23,12,-11,-18,17,0,70,19,-37,8,-121,2
24,15,-9,-20,16,3,70,17,-38,9,-119,1
27,19,-8,-23,17,6,64,14,-42,11,-116,-3
25,18,-6,-22,15,6,63,12,-41,8,-122,-5
24,16,-8,-20,15,4,65,14,-40,7,-121,-5
21,12,-9,-17,14,1,67,14,-38,5,-123,-1
15,5,-10,-11,12,-3,70,16,-36,6,-119,3
14,1,-13,-8,13,-6,68,15,-36,7,-113,3
10,-3,-13,-3,11,-8,64,12,-38,6,-114,0
11,-5,-15,-3,13,-10,64,11,-39,6,-111,-3
12,-4,-17,-4,14,-10,67,8,-40,4,-119,-5
11,-6,-17,-3,13,-12,69,7,-39,3,-121,-4
11,-7,-19,-2,14,-13,69,7,-39,4,-120,2
12,-7,-19,-3,15,-13,67,7,-38,3,-122,3
18,-3,-21,-7,19,-12,63,9,-39,4,-113,2
19,-2,-21,-9,20,-11,60,7,-42,0,-116,-1
18,-2,-20,-9,19,-11,60,5,-46,-4,-120,-9
20,-1,-21,-10,20,-11,58,3,-48,-5,-120,-12
16,-3,-19,-7,17,-11,57,2,-47,-8,-127,-15
15,-5,-20,-5,17,-12,60,4,-44,-8,-125,-15
10,-8,-19,-1,14,-13,65,4,-39,-10,-131,-13
7,-10,-17,1,11,-13,67,4,-37,-11,-132,-13
8,-7,-15,-1,11,-11,63,4,-39,-11,-129,-10
8,-7,-15,-1,11,-11,62,4,-40,-13,-132,-8
14,-5,-18,-5,16,-11,60,6,-43,-14,-124,-6
18,-1,-19,-9,18,-10,66,7,-42,-16,-125,-1
21,3,-18,-12,19,-8,79,10,-39,-17,-123,3
20,5,-15,-13,17,-5,80,13,-36,-16,-116,7
9,3,-7,-6,7,-2,76,16,-33,-16,-113,8
8,4,-4,-6,5,0,76,18,-32,-15,-105,9
8,6,-3,-8,5,2,78,16,-32,-18,-107,10
9,4,-5,-7,6,0,78,17,-30,-19,-108,6
12,2,-10,-8,11,-4,73,17,-29,-19,-108,2
13,-1,-14,-6,13,-7,69,16,-30,-23,-115,-1
17,-2,-19,-8,18,-10,64,15,-33,-25,-113,-2
16,-1,-18,-8,17,-9,64,14,-34,-25,-113,0
12,0,-13,-6,12,-6,70,17,-32,-22,-105,3
12,-1,-13,-6,12,-7,70,19,-33,-20,-99,5
9,-6,-15,-2,12,-10,66,20,-34,-22,-102,3
9,-8,-17,-1,12,-13,68,20,-35,-24,-101,1
5,-10,-16,2,10,-13,72,16,-34,-29,-111,-1
3,-13,-17,5,10,-15,74,14,-34,-32,-116,-2
6,-15,-21,4,13,-18,72,10,-35,-33,-120,1
5,-16,-21,5,13,-19,69,8,-34,-35,-125,0
9,-14,-24,2,16,-19,65,7,-33,-32,-116,-3
13,-12,-25,-1,19,-19,64,4,-34,-31,-119,-6
18,-9,-28,-5,23,-19,69,3,-36,-28,-120,-12
21,-7,-28,-7,24,-18,68,3,-36,-29,-118,-12
15,-8,-23,-4,18,-16,67,6,-33,-34,-122,-12
13,-8,-21,-3,17,-14,68,9,-30,-35,-116,-9
10,-8,-19,-1,14,-13,71,9,-28,-36,-118,-3
9,-9,-18,-1,13,-14,73,7,-28,-38,-115,-1
13,-9,-21,-2,16,-15,70,3,-31,-39,-111,2
11,-9,-20,-1,15,-15,67,2,-32,-43,-112,4
11,-8,-20,-2,15,-14,64,5,-34,-44,-103,6
12,-8,-19,-2,15,-13,63,4,-35,-47,-104,5
13,-7,-20,-3,16,-14,65,5,-35,-48,-101,-1
16,-9,-24,-4,20,-16,64,6,-35,-48,-100,-3
15,-14,-28,-1,21,-21,62,6,-34,-51,-107,-6
14,-17,-31,1,22,-24,63,8,-33,-50,-105,-7
9,-21,-30,6,19,-25,68,8,-31,-51,-111,-5
4,-23,-27,9,15,-25,71,9,-30,-49,-111,-5
2,-22,-24,10,12,-23,70,9,-32,-45,-110,-3
-1,-22,-20,11,9,-21,70,7,-33,-45,-113,-1
1,-19,-20,8,10,-20,67,5,-35,-44,-104,3
4,-16,-20,5,11,-18,70,4,-32,-46,-103,6
7,-12,-19,2,13,-16,78,7,-26,-45,-97,6
10,-9,-20,-1,15,-14,77,9,-24,-43,-92,4
8,-10,-17,1,12,-14,71,11,-23,-43,-94,-3
11,-10,-21,-1,15,-16,68,11,-24,-43,-93,-10
13,-12,-26,-1,19,-19,68,6,-27,-48,-106,-16
13,-14,-27,0,19,-20,67,3,-29,-53,-112,-17
12,-15,-27,1,19,-21,65,-1,-32,-59,-116,-12
8,-15,-23,3,15,-19,63,-3,-33,-62,-117,-8
10,-12,-22,1,15,-17,61,-2,-35,-58,-102,-3
12,-12,-24,0,18,-18,62,-3,-37,-58,-99,0
16,-14,-31,-1,23,-23,67,-3,-38,-56,-93,-1
18,-14,-32,-2,24,-23,65,-2,-39,-55,-90,0
11,-16,-27,2,19,-21,60,-1,-35,-56,-95,-3
11,-11,-22,0,16,-16,59,0,-36,-55,-92,-3
9,-5,-13,-3,10,-9,61,0,-37,-57,-100,-2
9,-1,-10,-4,9,-5,61,2,-34,-56,-101,-2
13,2,-11,-8,12,-5,59,2,-30,-53,-100,1
15,1,-14,-8,14,-6,56,4,-28,-52,-102,0
21,0,-21,-11,20,-10,51,8,-28,-48,-93,-1
23,0,-23,-12,22,-11,49,7,-31,-49,-95,1
24,1,-23,-13,23,-11,50,4,-34,-48,-93,5
23,5,-18,-15,20,-6,43,0,-39,-46,-89,6
17,10,-7,-14,12,1,33,-4,-42,-46,-92,1
17,12,-4,-15,10,4,30,-5,-43,-43,-87,0
16,11,-4,-14,9,3,32,-5,-42,-43,-93,0
15,9,-5,-12,9,2,32,-5,-42,-43,-96,-2
16,9,-7,-13,11,1,27,-6,-44,-44,-100,-3
13,7,-6,-11,9,0,23,-6,-43,-45,-107,-4
15,7,-8,-12,11,0,18,-5,-42,-44,-101,-2
13,9,-4,-12,8,3,17,-4,-40,-43,-102,0
10,13,3,-12,3,8,22,-1,-38,-39,-95,0
10,15,6,-13,2,10,20,1,-38,-36,-90,-1
6,15,9,-11,-2,12,16,3,-36,-34,-93,-6
8,12,4,-11,2,8,15,4,-37,-33,-90,-10
9,6,-3,-8,6,1,15,2,-40,-37,-99,-12
10,2,-8,-6,8,-3,14,1,-41,-37,-102,-15
12,2,-11,-8,11,-4,9,-1,-43,-36,-104,-15
10,1,-9,-6,9,-4,5,-2,-42,-36,-108,-14
11,1,-10,-7,10,-4,1,-1,-42,-34,-99,-9
11,2,-9,-7,9,-3,2,-1,-41,-33,-98,-6
11,3,-8,-8,9,-3,9,0,-38,-31,-90,-6
13,3,-10,-8,11,-4,9,0,-37,-30,-84,-4
9,-1,-10,-4,9,-5,5,-1,-37,-30,-86,-4
10,0,-10,-6,9,-5,5,1,-37,-30,-80,-1
10,3,-7,-7,8,-2,7,1,-37,-32,-85,2
5,2,-3,-4,3,-1,9,4,-36,-32,-84,4
-1,0,1,0,-2,1,8,5,-36,-32,-82,8
-5,-2,3,3,-5,1,5,4,-39,-34,-86,7
0,-1,0,0,-1,0,0,2,-46,-35,-80,5
3,0,-3,-2,3,-1,-1,-1,-50,-38,-84,2
8,2,-7,-5,7,-2,3,-3,-53,-39,-82,-2
15,4,-11,-10,13,-3,1,-5,-56,-40,-81,-2
19,6,-12,-13,15,-3,-3,-7,-57,-43,-86,-2
22,9,-13,-16,17,-2,-2,-6,-57,-43,-81,0
19,11,-8,-16,13,1,2,-5,-54,-45,-85,3
16,9,-7,-13,11,1,6,-2,-52,-43,-83,2
15,6,-8,-11,11,-1,7,2,-52,-40,-82,0
12,3,-9,-8,10,-3,5,3,-51,-41,-87,-3
14,1,-14,-8,13,-6,0,4,-52,-41,-84,-5
16,0,-17,-8,16,-9,0,0,-53,-45,-90,-7
20,-1,-21,-10,20,-11,5,-4,-54,-47,-90,-10
23,-1,-23,-12,23,-12,3,-5,-53,-47,-88,-7
20,-2,-21,-9,20,-12,-1,-4,-50,-46,-91,-5
21,-1,-22,-10,21,-12,-1,-2,-47,-43,-84,-1
20,-1,-21,-10,20,-11,3,-4,-44,-44,-86,4
21,-2,-22,-10,21,-12,5,-4,-42,-43,-84,3
23,-1,-24,-11,23,-13,4,-5,-42,-42,-83,0
18,-4,-21,-7,19,-12,4,-2,-39,-42,-87,-3
13,-6,-19,-4,15,-12,3,5,-36,-40,-80,-4
7,-8,-15,0,10,-11,7,7,-34,-41,-83,-2
2,-9,-11,3,6,-10,14,9,-32,-41,-80,-1
4,-9,-13,2,8,-11,13,9,-32,-39,-75,1
5,-12,-16,3,10,-14,9,9,-32,-38,-75,2
7,-10,-17,1,12,-13,8,8,-33,-38,-68,4
6,-6,-12,0,9,-9,10,3,-34,-43,-71,8
6,-3,-9,-2,7,-6,9,0,-36,-45,-70,8
9,1,-8,-5,8,-3,5,-4,-40,-44,-70,9
7,3,-4,-6,5,-1,3,-7,-41,-45,-74,7
9,5,-4,-8,6,1,1,-8,-42,-43,-69,5
11,7,-4,-9,7,1,2,-10,-44,-44,-72,7
14,7,-7,-11,10,0,7,-10,-47,-43,-68,10
15,5,-11,-11,13,-3,3,-10,-51,-44,-66,9
10,-1,-12,-5,11,-7,-6,-10,-55,-48,-69,2
8,-6,-13,-2,10,-9,-9,-10,-57,-49,-66,-3
2,-10,-12,3,6,-11,-8,-11,-56,-53,-75,-6
-1,-13,-11,7,5,-12,-4,-11,-56,-53,-77,-9
-2,-15,-13,8,5,-14,-2,-12,-57,-52,-79,-9
-3,-17,-14,9,5,-15,-5,-13,-58,-55,-85,-12
1,-17,-19,7,10,-18,-14,-14,-60,-56,-82,-15
2,-18,-20,8,10,-19,-17,-17,-63,-60,-87,-15
1,-20,-21,9,10,-20,-14,-20,-66,-63,-85,-15
2,-19,-22,8,11,-21,-20,-22,-71,-64,-82,-16
0,-20,-20,9,10,-20,-30,-22,-74,-65,-84,-21
2,-22,-24,10,12,-23,-37,-24,-81,-68,-81,-25
1,-27,-28,13,14,-28,-44,-28,-89,-78,-92,-28
-2,-36,-35,19,16,-36,-48,-33,-96,-84,-97,-32
-3,-47,-44,25,20,-45,-54,-40,-104,-90,-104,-34
-3,-53,-50,27,23,-51,-61,-44,-109,-94,-111,-35
5,-54,-58,24,31,-56,-70,-46,-114,-95,-106,-35
5,-54,-59,24,32,-57,-72,-46,-117,-98,-109,-37
2,-54,-57,26,29,-56,-68,-42,-117,-99,-105,-42
2,-56,-58,27,29,-57,-70,-41,-118,-100,-104,-47
-2,-61,-58,31,28,-60,-73,-41,-117,-102,-110,-54
-4,-63,-59,33,27,-61,-69,-39,-115,-101,-109,-54
-9,-64,-55,36,23,-60,-60,-39,-111,-104,-117,-49
-13,-63,-50,38,18,-57,-49,-35,-103,-100,-114,-45
-15,-60,-44,37,14,-52,-41,-32,-93,-92,-107,-38
-21,-58,-37,39,7,-48,-32,-28,-83,-85,-104,-35
-24,-56,-32,40,4,-44,-24,-21,-73,-75,-90,-30
-25,-54,-29,39,2,-42,-12,-17,-63,-70,-88,-26
-22,-53,-31,37,4,-42,3,-12,-54,-65,-81,-25
-18,-51,-33,34,7,-42,9,-7,-48,-59,-76,-23
-18,-50,-32,34,7,-41,10,0,-42,-54,-76,-25
-13,-47,-35,29,11,-41,14,6,-36,-49,-70,-23
-9,-44,-35,26,13,-40,20,9,-30,-48,-77,-20
-7,-42,-35,24,14,-38,25,13,-25,-44,-75,-21
-4,-39,-35,21,15,-37,25,15,-22,-39,-73,-21
-3,-38,-35,20,16,-37,24,16,-18,-36,-76,-23
2,-37,-39,17,20,-38,20,17,-16,-30,-69,-25
3,-36,-39,16,21,-37,22,16,-13,-27,-70,-23
4,-35,-38,15,21,-37,30,16,-10,-23,-63,-20
0,-34,-33,17,16,-33,31,15,-7,-17,-57,-14
-12,-34,-22,22,5,-28,28,16,-2,-11,-55,-11
-13,-30,-17,21,2,-24,28,17,1,-5,-46,-9
-12,-25,-13,18,0,-19,27,14,2,-2,-48,-7
-9,-21,-12,14,1,-16,27,13,2,2,-46,-7
-3,-16,-13,9,5,-15,24,11,1,5,-48,-6
-5,-15,-10,10,2,-12,24,12,3,6,-51,-4
-8,-14,-7,11,-1,-10,24,15,5,8,-43,0
-9,-15,-6,12,-2,-10,26,17,7,10,-42,4
-7,-16,-9,11,0,-12,32,21,9,14,-33,4
-3,-15,-13,8,5,-14,31,21,9,18,-26,6
-1,-15,-14,7,6,-14,29,19,10,20,-24,6
1,-14,-15,6,7,-14,29,19,11,22,-18,5
-4,-15,-11,9,3,-13,30,17,12,19,-25,2
-6,-14,-8,9,1,-11,31,17,12,17,-27,-2
-5,-10,-5,7,-1,-7,28,15,9,15,-32,-4
-6,-10,-4,7,-1,-7,25,12,7,12,-37,-5
0,-10,-9,5,4,-9,20,10,5,12,-32,-3
2,-9,-11,3,6,-10,20,10,3,10,-33,-2
5,-8,-13,1,8,-10,25,15,3,10,-26,-2
4,-9,-13,2,8,-11,23,16,2,9,-22,-2
-4,-13,-9,8,2,-11,18,16,4,8,-24,-6
-4,-13,-9,8,2,-11,16,16,4,6,-21,-8
-3,-11,-8,6,3,-10,15,13,5,0,-31,-8
-1,-8,-7,4,3,-8,14,11,4,-2,-32,-10
3,-3,-6,-1,4,-4,12,5,3,-3,-34,-12
2,1,-2,-2,2,0,7,0,0,-6,-39,-12
5,6,1,-6,2,3,0,-6,-4,-6,-35,-7
3,7,5,-5,-1,6,-1,-10,-5,-7,-37,-4
0,7,7,-4,-4,7,4,-10,-4,-6,-28,-2
0,8,8,-4,-5,8,3,-11,-4,-4,-23,0
-3,8,11,-3,-8,9,-1,-12,-3,-2,-23,-1
-1,7,8,-3,-5,8,-3,-9,-5,-1,-18,-1
-2,4,6,-2,-4,5,-4,-7,-6,-4,-25,1
1,3,2,-3,-1,3,-3,-3,-7,-4,-25,1
8,6,-2,-7,5,2,-3,0,-7,-4,-26,3
8,5,-3,-7,5,1,-5,2,-8,-5,-30,3
10,4,-6,-8,8,-1,-11,2,-12,-4,-25,4
10,4,-6,-7,7,-1,-14,-1,-15,-6,-28,4
10,5,-5,-8,7,0,-13,-6,-17,-7,-25,1
9,9,0,-10,4,4,-18,-17,-23,-10,-28,-2
2,14,11,-8,-5,12,-26,-31,-28,-16,-36,-10
-5,17,23,-6,-14,20,-25,-47,-31,-21,-42,-22
-19,19,38,0,-29,28,-19,-66,-30,-30,-61,-39
-34,11,45,11,-40,28,-5,-83,-30,-40,-82,-72
-48,-1,47,24,-48,23,13,-100,-32,-54,-112,-114
-65,-21,43,43,-54,11,37,-107,-25,-71,-153,-172
-76,-45,31,60,-54,-7,65,-106,-15,-88,-191,-239
-99,-78,21,88,-60,-29,105,-104,1,-106,-247,-321
-127,-118,9,122,-69,-54,157,-98,22,-121,-302,-415
-162,-167,-5,164,-79,-86,211,-88,47,-136,-364,-520
-206,-226,-21,216,-93,-123,272,-75,79,-152,-436,-637
-249,-291,-42,270,-104,-166,336,-53,118,-160,-500,-760
-300,-362,-62,330,-119,-212,402,-28,164,-168,-574,-888
-351,-438,-87,394,-132,-262,459,1,205,-171,-641,-1021
-402,-516,-114,459,-144,-315,508,30,241,-172,-710,-1153
-447,-584,-137,515,-155,-361,538,61,281,-165,-770,-1241
-481,-643,-162,561,-159,-403,551,95,320,-150,-812,-1293
-487,-686,-198,586,-145,-442,555,148,361,-107,-809,-1276
-470,-716,-246,592,-113,-481,552,218,403,-40,-757,-1208
-432,-724,-291,578,-71,-508,529,295,438,42,-660,-1087
-382,-716,-334,549,-24,-525,492,380,471,136,-530,-925
-327,-676,-349,502,10,-513,450,447,503,237,-368,-741
-273,-613,-340,443,33,-476,405,500,535,341,-193,-537
-220,-537,-317,378,48,-427,356,537,561,443,-15,-346
-166,-449,-283,307,58,-366,304,559,581,543,161,-161
-116,-356,-240,235,62,-298,248,566,588,619,308,-4
-64,-256,-192,159,64,-224,189,558,582,680,440,131
-21,-165,-144,93,61,-155,143,535,566,715,532,226
17,-82,-99,32,58,-91,109,503,542,733,602,287
42,-23,-66,-10,54,-45,75,460,506,724,629,313
55,14,-41,-35,48,-14,43,412,462,692,619,312
68,43,-25,-56,46,9,20,361,409,642,587,297
77,64,-13,-71,45,25,3,306,352,574,525,274
83,73,-10,-79,46,32,-5,265,302,509,468,251
89,76,-13,-83,51,31,-10,232,255,442,410,231
88,76,-12,-83,50,32,-13,204,216,381,356,215
89,78,-11,-84,50,33,-18,181,181,327,316,201
84,78,-7,-81,45,35,-16,156,151,280,274,188
80,77,-2,-79,41,37,-10,134,125,241,245,173
72,76,4,-74,33,40,-12,111,101,205,215,155
58,72,14,-65,21,43,-18,92,80,172,183,132
56,70,14,-63,20,42,-23,74,61,144,158,116
58,68,10,-63,24,39,-27,56,44,117,125,107
58,64,6,-62,26,35,-28,47,30,97,106,99
58,60,2,-59,28,31,-29,41,17,79,90,95
57,53,-3,-55,30,25,-30,36,7,63,76,92
60,49,-12,-55,36,18,-34,32,-3,51,71,90
60,44,-15,-53,37,15,-34,25,-12,37,59,86
59,42,-17,-51,38,12,-31,18,-21,26,54,78
57,40,-17,-49,37,12,-32,10,-29,15,47,71
50,37,-13,-44,31,12,-35,5,-33,5,36,61
46,36,-11,-42,28,13,-36,3,-36,-2,31,56
41,34,-7,-38,23,13,-37,2,-37,-10,15,55
38,32,-6,-35,22,13,-35,3,-39,-15,10,55
38,31,-7,-35,22,12,-33,2,-43,-19,5,58
35,29,-6,-32,20,11,-34,2,-44,-20,3,61
35,28,-8,-32,21,10,-40,2,-44,-18,11,63
37,26,-11,-32,24,8,-40,-4,-47,-23,8,61
42,26,-17,-34,29,5,-36,-11,-51,-29,10,53
47,28,-19,-38,32,4,-37,-16,-54,-34,7,47
47,30,-17,-39,31,6,-38,-18,-53,-39,0,41
49,32,-17,-41,32,8,-39,-18,-53,-40,0,36
46,32,-14,-39,30,9,-40,-17,-52,-43,-8,33
46,30,-16,-38,30,7,-39,-16,-52,-44,-10,31
46,27,-19,-37,32,4,-38,-15,-53,-45,-14,33
43,23,-21,-33,32,1,-40,-16,-54,-47,-17,35
43,19,-24,-32,33,-2,-45,-16,-58,-48,-12,38
41,17,-25,-29,33,-4,-45,-17,-59,-50,-13,39
41,15,-26,-28,33,-6,-40,-16,-59,-49,-4,38
41,14,-27,-28,34,-7,-40,-16,-60,-50,-2,36
38,12,-26,-25,31,-7,-43,-15,-59,-51,-5,31
38,13,-25,-26,31,-6,-44,-14,-59,-51,-4,29
34,13,-21,-24,27,-4,-46,-15,-59,-53,-13,28
33,11,-22,-22,27,-5,-45,-14,-59,-52,-14,25
33,8,-25,-21,29,-8,-45,-16,-62,-51,-18,25
33,8,-25,-20,29,-9,-44,-17,-63,-52,-23,25
37,11,-26,-25,31,-7,-43,-18,-64,-51,-18,29
38,13,-24,-26,31,-5,-42,-19,-66,-52,-20,32
39,15,-23,-27,31,-4,-38,-18,-68,-49,-12,33
37,16,-21,-27,29,-3,-39,-18,-68,-48,-10,33
30,13,-16,-22,23,-1,-41,-18,-67,-49,-14,29
31,14,-17,-23,23,-1,-42,-20,-67,-48,-12,29
31,14,-17,-23,24,-1,-43,-25,-66,-51,-21,29
32,13,-19,-23,25,-3,-43,-26,-65,-50,-21,30
33,11,-22,-22,27,-6,-45,-26,-65,-48,-23,32
31,9,-22,-20,26,-6,-48,-25,-63,-48,-26,34
32,10,-22,-21,27,-6,-53,-24,-63,-46,-20,37
32,9,-23,-21,27,-7,-54,-26,-65,-46,-23,39
35,8,-27,-22,31,-10,-51,-27,-67,-43,-17,39
37,7,-31,-22,34,-12,-50,-28,-69,-42,-15,38
35,3,-33,-19,34,-15,-49,-28,-68,-41,-15,34
35,3,-32,-19,33,-14,-48,-25,-67,-36,-10,33
30,5,-25,-18,27,-10,-46,-23,-64,-31,-15,32
28,6,-22,-17,25,-8,-43,-23,-64,-28,-15,32
29,6,-23,-17,25,-9,-41,-25,-66,-31,-19,35
27,5,-22,-16,24,-9,-42,-27,-68,-32,-22,35
30,6,-23,-18,26,-9,-45,-29,-70,-32,-15,37
28,8,-20,-18,23,-6,-43,-29,-71,-34,-18,38
26,11,-15,-19,20,-2,-36,-27,-72,-34,-13,37
25,11,-14,-18,19,-2,-34,-27,-73,-35,-12,37
21,7,-14,-14,17,-3,-34,-26,-73,-35,-13,34
22,6,-16,-15,19,-5,-34,-26,-73,-34,-10,34
23,6,-17,-15,19,-5,-36,-27,-71,-36,-17,36
26,6,-20,-17,23,-7,-35,-27,-72,-36,-17,35
32,7,-25,-20,28,-9,-35,-28,-75,-36,-20,36
33,7,-26,-20,29,-10,-36,-27,-75,-37,-24,35
36,8,-28,-23,32,-10,-39,-25,-75,-35,-19,37
36,8,-28,-22,32,-10,-38,-26,-75,-37,-23,38
36,8,-28,-23,32,-10,-32,-27,-75,-36,-17,37
35,8,-27,-22,31,-9,-32,-27,-75,-35,-14,37
30,7,-23,-19,26,-8,-33,-25,-73,-33,-13,34
30,7,-23,-19,27,-8,-33,-25,-72,-32,-9,33
29,6,-24,-18,26,-9,-32,-29,-71,-37,-17,32
30,6,-24,-18,26,-9,-28,-30,-71,-36,-16,30
31,8,-23,-19,26,-8,-26,-33,-73,-32,-19,32
30,8,-22,-19,25,-7,-26,-35,-74,-34,-24,32
33,10,-24,-22,28,-7,-31,-36,-76,-36,-22,34
33,11,-22,-22,27,-5,-31,-37,-76,-38,-26,36
33,14,-19,-24,26,-3,-26,-34,-74,-36,-20,37
31,14,-17,-23,24,-2,-24,-33,-73,-35,-18,37
24,11,-14,-18,19,-2,-22,-31,-70,-34,-19,35
23,9,-14,-16,18,-2,-21,-31,-69,-34,-15,34
19,7,-12,-13,15,-2,-22,-34,-65,-38,-22,34
17,5,-12,-12,15,-4,-21,-35,-65,-38,-20,33
18,3,-15,-10,16,-6,-21,-37,-66,-38,-22,32
15,0,-15,-8,15,-7,-24,-38,-65,-38,-26,31
17,0,-17,-9,17,-9,-31,-40,-66,-35,-21,31
18,-1,-20,-9,19,-10,-33,-43,-67,-36,-25,28
24,-2,-25,-11,24,-14,-31,-45,-69,-36,-19,20
27,-1,-28,-13,27,-15,-28,-47,-71,-36,-19,19
26,-1,-27,-12,26,-14,-21,-47,-70,-36,-21,17
25,-1,-26,-12,26,-14,-20,-47,-70,-37,-17,18
20,-3,-22,-9,21,-12,-21,-48,-68,-40,-24,19
20,-5,-25,-8,22,-15,-20,-49,-69,-43,-24,18
24,-8,-32,-8,28,-20,-20,-52,-71,-47,-30,17
20,-13,-33,-4,27,-23,-20,-52,-69,-50,-34,17
18,-16,-34,-1,26,-25,-23,-50,-68,-50,-30,18
14,-18,-32,1,23,-25,-21,-50,-66,-51,-32,21
14,-17,-31,2,22,-24,-16,-49,-64,-50,-24,24
13,-19,-32,3,22,-25,-17,-49,-63,-48,-20,26
8,-24,-32,7,20,-28,-20,-47,-59,-46,-18,24
10,-26,-36,8,23,-31,-22,-47,-58,-45,-13,23
9,-29,-38,10,24,-34,-23,-50,-57,-50,-20,21
9,-29,-38,10,23,-34,-20,-48,-55,-52,-19,20
8,-27,-35,10,21,-31,-17,-46,-52,-54,-23,24
4,-30,-34,12,19,-32,-16,-43,-50,-54,-25,23
6,-33,-39,13,22,-36,-19,-40,-51,-52,-19,23
7,-35,-42,14,24,-39,-18,-39,-49,-52,-20,24
12,-35,-47,11,29,-41,-12,-35,-47,-52,-12,25
15,-36,-51,10,33,-43,-12,-34,-46,-50,-10,26
13,-38,-52,12,32,-45,-12,-31,-45,-48,-9,24
15,-39,-54,12,35,-47,-13,-29,-45,-46,-4,24
14,-40,-54,13,34,-47,-13,-28,-42,-48,-9,23
12,-43,-55,15,33,-49,-9,-26,-41,-46,-6,22
10,-45,-56,17,33,-51,-5,-25,-41,-43,-8,21
7,-47,-54,19,30,-50,-4,-24,-38,-41,-8,22
9,-45,-54,17,31,-49,-8,-21,-36,-37,1,26
8,-44,-53,18,30,-49,-7,-20,-33,-36,3,28
9,-45,-54,18,31,-49,0,-17,-30,-33,14,29
11,-47,-58,18,34,-52,0,-15,-30,-30,21,30
11,-52,-63,21,36,-58,-2,-11,-30,-27,26,29
15,-55,-70,20,42,-63,-2,-7,-30,-23,35,30
17,-58,-75,21,46,-67,-2,-4,-28,-23,31,30
17,-62,-79,22,48,-71,4,-1,-26,-20,37,32
16,-66,-82,24,49,-74,10,2,-24,-17,37,36
14,-70,-84,28,49,-77,11,5,-22,-16,37,38
16,-74,-90,29,52,-82,4,8,-22,-13,42,40
16,-79,-95,32,55,-87,4,11,-21,-12,42,42
18,-85,-104,33,61,-94,8,16,-21,-7,53,42
19,-90,-109,35,64,-99,9,20,-20,-3,58,44
15,-95,-110,40,62,-103,11,25,-17,2,62,44
17,-97,-114,40,65,-106,11,29,-16,7,69,45
18,-99,-116,40,67,-107,10,30,-13,8,66,46
17,-102,-119,42,68,-110,12,35,-11,12,71,44
16,-106,-121,45,68,-114,14,39,-10,12,72,43
13,-110,-123,48,68,-117,15,45,-8,14,73,41
16,-112,-128,47,72,-120,13,50,-7,18,80,42
18,-113,-130,47,74,-122,14,53,-7,18,78,40
22,-112,-134,45,78,-123,18,57,-7,20,87,37
25,-114,-138,44,81,-126,20,60,-7,22,89,35
23,-119,-141,48,82,-130,23,65,-6,24,89,32
23,-121,-144,48,84,-132,26,70,-6,24,94,30
20,-123,-143,51,82,-133,28,75,-4,18,89,27
21,-126,-147,52,83,-136,33,81,-4,17,91,23
22,-130,-152,53,87,-141,36,85,-4,17,88,21
22,-135,-157,56,89,-146,36,88,-4,15,83,17
25,-139,-164,57,95,-152,31,91,-6,13,84,16
23,-143,-166,60,94,-154,30,94,-6,12,80,14
21,-145,-166,62,93,-156,32,99,-6,14,89,11
18,-148,-166,65,92,-157,31,103,-6,13,89,8
11,-153,-163,71,87,-158,31,106,-5,12,87,2
8,-155,-163,74,85,-159,29,111,-5,11,90,-1
1,-159,-160,79,80,-159,27,115,-3,8,81,-5
-3,-161,-159,82,78,-160,29,117,-4,7,80,-9
-5,-163,-158,83,76,-160,31,114,-7,4,73,-11
-8,-165,-157,86,74,-161,30,116,-6,2,68,-14
-5,-165,-160,85,77,-162,26,121,-4,2,71,-14
-3,-165,-163,84,80,-164,23,121,-3,0,66,-15
5,-164,-169,79,87,-167,22,121,-5,0,71,-18
11,-162,-173,75,92,-167,20,121,-8,-1,70,-19
13,-160,-173,74,93,-167,20,122,-9,-1,69,-22
18,-158,-176,70,97,-167,16,121,-11,-1,71,-24
20,-158,-178,69,99,-168,12,116,-11,-5,63,-27
21,-156,-177,68,99,-167,14,115,-12,-4,64,-28
19,-154,-173,67,96,-164,18,112,-13,-5,58,-26
16,-154,-169,69,92,-161,16,109,-13,-5,54,-27
17,-152,-169,67,93,-160,9,105,-15,-3,58,-26
16,-149,-165,67,90,-157,6,101,-15,-5,53,-26
17,-145,-162,64,89,-153,9,99,-16,-4,59,-25
16,-143,-159,63,87,-151,7,98,-16,-4,58,-22
11,-145,-156,67,83,-150,6,97,-15,-3,57,-19
12,-142,-154,65,83,-148,2,96,-17,-2,59,-17
11,-139,-150,64,80,-145,-3,93,-21,-5,50,-19
10,-137,-146,63,78,-142,-3,90,-24,-6,50,-21
8,-134,-142,63,75,-138,-1,85,-27,-9,43,-22
6,-133,-139,63,72,-136,-3,80,-30,-14,35,-24
9,-130,-139,60,74,-135,-10,76,-34,-18,31,-24
8,-130,-139,61,73,-134,-13,70,-37,-24,22,-25
9,-131,-141,61,75,-136,-13,67,-41,-26,26,-28
10,-130,-140,59,75,-135,-16,59,-45,-30,22,-31
9,-127,-136,59,73,-132,-19,52,-48,-33,18,-36
11,-122,-133,56,72,-128,-21,46,-50,-35,18,-37
7,-118,-125,55,66,-121,-23,40,-50,-40,6,-38
5,-114,-119,55,62,-117,-21,35,-50,-43,4,-39
1,-111,-112,55,57,-112,-17,29,-51,-47,-3,-39
-2,-110,-108,55,53,-109,-17,23,-52,-51,-9,-41
2,-106,-108,52,55,-107,-23,16,-55,-52,-10,-42
5,-103,-108,49,56,-105,-25,8,-58,-59,-19,-45
13,-98,-111,43,62,-105,-24,0,-62,-64,-20,-51
13,-97,-109,42,61,-103,-22,-6,-64,-68,-26,-50
5,-98,-103,46,54,-101,-19,-8,-63,-71,-31,-46
1,-98,-100,48,50,-99,-22,-11,-65,-72,-32,-47
-7,-101,-93,54,43,-97,-27,-17,-65,-76,-42,-53
-10,-101,-91,55,40,-96,-27,-21,-67,-77,-44,-60
-10,-100,-90,55,39,-95,-25,-28,-68,-81,-53,-64
-13,-99,-86,56,36,-92,-24,-30,-67,-83,-60,-67
-12,-96,-83,54,35,-90,-27,-30,-66,-84,-60,-64
-15,-94,-80,54,32,-87,-27,-33,-63,-86,-68,-65
-13,-92,-79,53,33,-86,-24,-35,-58,-84,-66,-67
-12,-92,-79,52,33,-85,-25,-39,-59,-83,-69,-69
-14,-93,-79,53,32,-86,-25,-43,-61,-81,-69,-73
-10,-91,-80,50,35,-86,-27,-45,-63,-79,-65,-73
-9,-88,-79,49,35,-84,-31,-48,-62,-81,-72,-72
-12,-86,-74,49,31,-80,-29,-49,-60,-79,-70,-71
-20,-84,-64,52,21,-74,-26,-51,-59,-78,-75,-67
-28,-85,-57,56,14,-71,-26,-52,-58,-77,-78,-67
-30,-86,-56,58,13,-71,-31,-52,-58,-75,-74,-67
-32,-86,-53,59,10,-69,-32,-55,-59,-76,-79,-68
-30,-83,-53,56,11,-68,-31,-58,-61,-75,-74,-70
-29,-81,-53,55,12,-67,-30,-60,-63,-75,-75,-70
-31,-83,-52,57,10,-67,-26,-59,-61,-74,-75,-72
-25,-82,-56,53,15,-69,-26,-57,-61,-73,-71,-73
-21,-81,-61,51,20,-71,-28,-56,-60,-75,-77,-75
-18,-83,-65,50,23,-74,-27,-55,-59,-73,-74,-77
-19,-86,-66,52,23,-76,-27,-56,-60,-72,-77,-77
-21,-90,-69,55,24,-79,-28,-59,-62,-72,-81,-79
-18,-92,-74,55,28,-83,-34,-63,-67,-73,-81,-77
-19,-94,-75,56,28,-85,-36,-65,-69,-75,-87,-76
-18,-95,-77,56,29,-86,-36,-62,-72,-75,-79,-75
-20,-99,-79,59,30,-89,-39,-62,-74,-76,-79,-75
-25,-107,-82,66,28,-94,-43,-61,-76,-77,-78,-78
-25,-112,-87,68,31,-99,-49,-61,-81,-79,-76,-80
-26,-116,-90,71,31,-103,-56,-61,-86,-85,-85,-82
-24,-121,-97,72,36,-109,-59,-59,-91,-89,-85,-84
-21,-126,-105,73,42,-115,-60,-58,-96,-93,-91,-83
-18,-130,-112,74,47,-121,-66,-59,-101,-97,-95,-84
-11,-131,-120,71,54,-125,-76,-60,-109,-100,-95,-83
-11,-131,-120,71,54,-125,-82,-62,-115,-105,-100,-83
-11,-129,-118,70,53,-123,-83,-61,-120,-108,-93,-82
-13,-127,-115,70,51,-121,-84,-60,-123,-109,-93,-80
-18,-128,-110,73,46,-119,-83,-57,-124,-107,-90,-80
-18,-124,-106,71,44,-115,-81,-56,-125,-107,-86,-78
-20,-119,-99,69,39,-109,-78,-57,-124,-111,-93,-76
-24,-120,-97,72,36,-109,-68,-54,-120,-110,-90,-76
-31,-127,-96,79,32,-111,-54,-50,-115,-109,-92,-74
-34,-129,-95,81,30,-112,-40,-43,-108,-106,-91,-72
-28,-125,-97,76,34,-111,-30,-33,-101,-99,-84,-68
-27,-125,-98,76,35,-112,-20,-28,-95,-96,-84,-66
-24,-127,-103,76,39,-115,-11,-23,-92,-91,-74,-66
-23,-129,-107,76,42,-118,-2,-20,-86,-88,-70,-64
-23,-132,-109,78,43,-121,9,-15,-76,-83,-66,-64
-18,-133,-114,75,48,-123,14,-11,-68,-77,-57,-61
-16,-133,-117,74,50,-125,14,-10,-60,-74,-57,-59
-12,-131,-119,71,53,-125,19,-7,-53,-68,-49,-56
-9,-127,-118,68,54,-123,26,-6,-46,-64,-50,-51
-11,-127,-116,69,52,-121,29,-2,-37,-60,-49,-47
-11,-126,-115,68,52,-120,28,3,-29,-54,-43,-41
-12,-125,-113,68,50,-119,29,7,-23,-50,-42,-38
-8,-122,-114,65,53,-118,31,13,-19,-42,-29,-36
-4,-120,-116,62,56,-118,35,17,-14,-37,-25,-33
-1,-119,-118,60,58,-118,44,21,-9,-31,-20,-32
0,-116,-117,58,58,-116,49,25,-3,-25,-12,-27
-5,-114,-109,60,52,-112,51,28,6,-24,-14,-22
-8,-111,-102,59,47,-107,57,31,13,-19,-8,-18
-12,-107,-94,60,41,-101,63,32,19,-15,-8,-14
-16,-103,-87,59,35,-95,65,35,26,-11,-7,-11
-14,-96,-82,55,34,-89,62,38,33,-6,0,-3
-16,-91,-76,53,30,-83,62,40,37,-4,-1,0
-14,-86,-72,50,29,-79,64,42,37,-1,8,2
-16,-81,-65,49,25,-73,64,43,39,3,13,5
-22,-78,-56,50,17,-67,65,46,42,8,20,6
-24,-74,-50,49,13,-62,60,43,42,11,28,8
-28,-70,-43,49,8,-57,51,37,40,9,25,7
-27,-65,-38,46,5,-51,46,32,37,9,28,4
-27,-59,-32,43,2,-46,43,24,34,6,21,2
-28,-54,-26,41,-1,-40,38,18,30,5,17,0
-25,-47,-22,36,-2,-35,30,12,24,4,17,1
-26,-44,-18,35,-4,-31,24,7,20,3,13,0
-23,-41,-18,32,-2,-30,21,6,15,5,23,-2
-20,-38,-18,29,-2,-28,18,4,12,4,22,-2
-20,-36,-16,27,-2,-26,17,4,10,2,21,-4
-16,-33,-17,25,0,-25,15,4,5,3,25,-2
-18,-33,-15,26,-2,-24,11,5,2,2,20,0
-19,-33,-14,26,-2,-24,12,7,0,3,23,-1
-21,-33,-13,27,-4,-23,15,6,0,2,19,-1
-22,-32,-10,27,-7,-21,14,7,2,1,17,-3
-19,-28,-8,23,-6,-18,8,7,2,2,20,-1
-19,-25,-5,22,-7,-15,4,3,1,1,16,-2
-16,-21,-5,18,-5,-13,1,-2,-2,3,23,-4
-14,-17,-4,15,-5,-10,0,-8,-4,1,21,-4
-14,-15,-1,14,-7,-8,3,-12,-5,-1,19,-6
-13,-11,2,12,-7,-5,0,-14,-5,0,23,-4
-18,-10,8,14,-13,-1,-5,-15,-2,0,19,-4
-17,-7,10,12,-14,1,-5,-15,-3,1,23,-3
-16,-4,12,10,-14,4,-2,-17,-4,-1,21,0
-16,-2,14,9,-15,6,-1,-16,-4,-2,20,1
-11,1,13,5,-12,7,-5,-14,-4,0,24,5
-11,1,12,5,-12,6,-9,-12,-3,0,22,7
-9,-1,8,5,-9,3,-13,-9,-4,2,31,7
-4,0,4,2,-4,2,-13,-7,-3,1,32,9
1,1,0,-1,0,1,-7,-4,-2,-1,34,9
6,2,-4,-4,5,-1,-8,-1,-2,0,39,10
3,-1,-4,-1,3,-2,-13,1,-3,-1,35,9
6,0,-6,-3,6,-3,-13,0,-6,-3,37,6
9,1,-8,-5,8,-3,-12,-7,-11,-8,29,3
6,4,-2,-5,4,1,-15,-18,-15,-12,21,-4
3,9,6,-6,-1,8,-24,-33,-22,-15,17,-9
-4,14,17,-5,-10,15,-27,-53,-27,-24,2,-21
-8,19,27,-6,-17,23,-26,-74,-33,-33,-5,-38
-19,16,35,2,-27,26,-17,-91,-35,-47,-26,-66
-38,4,42,17,-40,23,1,-102,-33,-64,-49,-105
-51,-12,40,32,-46,14,19,-109,-29,-79,-80,-157
-68,-34,34,51,-51,0,39,-111,-19,-97,-127,-222
-88,-65,23,76,-56,-21,73,-110,-7,-114,-176,-303
-113,-102,11,107,-62,-46,116,-108,7,-134,-239,-394
-147,-154,-6,150,-71,-80,166,-99,29,-153,-307,-500
-185,-214,-29,199,-78,-122,220,-85,55,-170,-377,-613
-233,-284,-51,258,-91,-167,283,-61,92,-182,-450,-737
-283,-358,-75,321,-104,-217,353,-29,137,-185,-512,-868
-333,-438,-104,386,-115,-271,414,4,180,-188,-581,-1001
-385,-522,-137,453,-124,-329,470,41,224,-187,-648,-1137
-424,-592,-168,508,-128,-380,508,78,274,-170,-698,-1223
-461,-655,-194,558,-133,-425,534,114,331,-145,-745,-1274
-474,-697,-224,585,-125,-460,554,173,393,-84,-726,-1250
-471,-725,-253,598,-109,-489,565,246,461,1,-671,-1165
-445,-733,-288,589,-78,-510,560,335,524,105,-559,-1036
-394,-723,-329,558,-33,-526,538,435,582,225,-398,-866
-342,-684,-342,513,0,-513,509,514,637,345,-227,-682
-283,-622,-339,452,28,-480,475,583,687,472,-27,-483
-228,-545,-317,387,44,-431,433,626,722,584,156,-297
-179,-458,-279,318,50,-369,387,652,746,688,335,-123
-129,-367,-237,248,54,-302,336,659,752,766,485,24
-89,-276,-187,182,49,-231,284,649,747,820,599,144
-50,-193,-143,121,46,-168,240,627,725,846,684,229
-17,-117,-100,67,42,-109,200,590,690,846,728,285
7,-61,-67,27,37,-64,165,545,643,819,736,308
28,-17,-45,-5,36,-31,133,493,586,774,716,312
42,13,-28,-28,35,-7,109,444,527,711,669,301
58,36,-22,-47,40,7,92,400,465,640,619,283
68,51,-17,-59,42,17,76,355,406,568,560,266
71,58,-13,-65,42,23,65,311,350,498,504,248
76,65,-11,-71,44,27,49,271,297,432,456,233
76,70,-6,-73,41,32,32,231,249,367,403,214
71,73,1,-72,35,37,21,196,208,313,364,196
60,74,14,-67,23,44,13,160,173,261,318,177
51,74,23,-63,14,48,2,128,142,215,277,153
48,74,26,-61,11,50,-13,96,111,175,240,130
44,73,29,-59,8,51,-26,68,85,137,199,109
47,73,26,-60,11,49,-35,47,62,106,173,94
48,70,22,-59,13,46,-41,31,44,79,146,87
46,64,18,-55,14,41,-41,23,32,59,128,83
50,59,9,-55,20,34,-45,19,19,44,120,81
49,52,4,-51,23,28,-51,16,9,29,106,75
50,48,-2,-49,26,23,-50,12,0,16,101,68
47,44,-3,-46,25,21,-47,2,-7,0,84,59
40,41,1,-40,19,21,-47,-6,-12,-13,71,49
34,40,6,-37,14,23,-53,-14,-18,-23,61,43
25,37,12,-31,7,24,-56,-23,-22,-33,47,36
22,34,12,-28,5,23,-58,-28,-27,-40,46,33
17,31,14,-24,1,22,-60,-32,-32,-46,39,33
11,26,15,-19,-2,21,-58,-32,-35,-48,37,34
12,25,13,-18,-1,19,-61,-30,-38,-50,40,37
10,23,12,-17,-1,17,-64,-27,-38,-54,35,37
10,21,11,-16,0,16,-60,-24,-39,-59,36,36
7,19,12,-13,-3,16,-53,-26,-39,-67,26,35
5,18,13,-11,-4,15,-52,-30,-40,-73,20,29
9,19,10,-14,0,14,-61,-37,-45,-76,17,23
9,19,10,-14,0,14,-65,-43,-46,-79,7,19
14,21,7,-18,4,14,-66,-47,-47,-77,9,16
20,24,5,-22,7,15,-65,-49,-47,-77,6,18
25,27,3,-26,11,15,-59,-46,-47,-75,9,19
30,29,-1,-29,16,14,-59,-44,-50,-72,16,23
28,26,-2,-27,15,12,-62,-43,-53,-70,15,24
23,19,-3,-21,13,8,-60,-43,-56,-71,18,22
10,9,-1,-10,6,4,-57,-47,-57,-77,10,18
4,4,0,-4,2,2,-55,-48,-58,-81,5,13
6,5,-1,-6,4,2,-56,-49,-60,-81,3,12
4,6,2,-5,1,4,-57,-50,-61,-83,-3,10
6,9,3,-8,1,6,-58,-51,-63,-82,3,11
6,10,4,-8,1,7,-57,-51,-63,-83,2,12
6,9,4,-7,1,6,-53,-49,-62,-82,6,11
10,10,0,-10,5,5,-53,-47,-61,-81,11,13
12,11,-1,-11,6,5,-56,-46,-60,-84,7,13
15,11,-4,-13,9,4,-54,-43,-59,-83,13,11
15,11,-5,-13,10,3,-51,-43,-58,-85,9,9
14,10,-4,-12,9,3,-48,-44,-57,-87,5,5
15,12,-3,-14,9,4,-48,-48,-57,-89,1,5
12,10,-2,-11,7,4,-49,-52,-58,-91,-6,3
12,7,-4,-9,8,2,-50,-55,-60,-91,1,3
12,6,-6,-9,9,0,-50,-58,-61,-92,-2,4
13,5,-8,-9,11,-2,-45,-60,-61,-93,-1,2
16,4,-12,-10,14,-4,-44,-61,-61,-93,3,4
14,1,-13,-7,14,-6,-46,-60,-59,-95,-1,3
14,1,-14,-8,14,-6,-44,-59,-58,-95,4,5
12,3,-10,-7,11,-3,-41,-59,-56,-98,0,7
7,3,-4,-5,6,0,-41,-60,-56,-99,-3,5
4,4,1,-4,1,3,-46,-61,-58,-99,-5,3
-1,3,3,-1,-2,3,-48,-63,-59,-101,-12,0
2,1,0,-1,1,1,-48,-63,-59,-101,-6,-1
3,1,-3,-2,3,-1,-46,-64,-59,-101,-9,0
5,0,-5,-3,5,-2,-40,-62,-59,-100,-7,0
9,1,-8,-5,9,-4,-41,-60,-61,-98,-4,1
8,0,-8,-4,8,-4,-42,-60,-60,-100,-9,-2
9,-2,-11,-3,10,-6,-39,-61,-62,-100,-5,-4
7,-5,-11,-1,9,-8,-34,-65,-63,-103,-11,-6
2,-7,-9,2,6,-8,-32,-67,-64,-105,-14,-9
0,-8,-7,4,4,-7,-35,-70,-66,-105,-15,-10
-2,-10,-9,6,3,-9,-37,-73,-66,-107,-21,-11
3,-13,-16,5,10,-15,-40,-73,-68,-106,-16,-11
5,-14,-19,5,12,-17,-39,-75,-69,-107,-19,-10
5,-15,-20,5,12,-17,-33,-76,-70,-107,-18,-11
2,-14,-15,6,9,-14,-31,-74,-70,-104,-13,-7
-10,-14,-4,12,-3,-9,-30,-69,-66,-102,-14,-4
-13,-14,-1,13,-6,-7,-27,-66,-64,-100,-9,-4
-14,-15,0,14,-7,-7,-23,-66,-63,-101,-13,-5
-16,-16,0,16,-8,-8,-23,-67,-63,-103,-17,-9
-14,-17,-3,16,-6,-10,-28,-72,-67,-104,-21,-11
-16,-18,-2,17,-7,-10,-31,-76,-68,-107,-29,-14
-12,-18,-5,15,-3,-11,-34,-78,-71,-106,-25,-16
-12,-18,-6,15,-3,-12,-34,-82,-71,-107,-27,-18
-14,-21,-7,17,-4,-14,-31,-85,-71,-108,-25,-21
-13,-23,-10,18,-2,-16,-35,-88,-74,-109,-23,-23
-17,-27,-10,23,-4,-19,-41,-92,-75,-113,-30,-26
-17,-31,-14,24,-2,-22,-40,-94,-77,-115,-29,-28
-18,-33,-15,26,-1,-24,-34,-97,-77,-120,-37,-29
-19,-36,-17,27,-1,-26,-31,-99,-76,-123,-41,-32
-16,-35,-20,26,2,-27,-32,-101,-77,-124,-43,-31
-19,-35,-16,27,-1,-25,-32,-104,-77,-126,-49,-31
-19,-32,-13,26,-3,-23,-32,-105,-77,-124,-42,-31
-20,-30,-10,25,-5,-20,-28,-108,-77,-125,-45,-30
-20,-29,-10,25,-5,-19,-21,-108,-77,-125,-43,-31
-16,-29,-13,23,-2,-21,-20,-109,-79,-125,-40,-29
-17,-32,-15,25,-1,-23,-21,-110,-79,-128,-46,-28
-20,-35,-15,27,-2,-25,-20,-111,-81,-129,-44,-29
-29,-39,-11,34,-9,-25,-18,-114,-83,-131,-51,-29
-32,-41,-9,37,-12,-25,-17,-117,-83,-133,-56,-32
-29,-40,-11,35,-9,-26,-18,-121,-84,-137,-59,-33
-34,-39,-6,37,-14,-22,-20,-126,-84,-142,-67,-35
-37,-36,1,37,-19,-18,-22,-130,-85,-143,-63,-36
-39,-36,3,37,-21,-16,-21,-131,-84,-146,-65,-37
-37,-37,1,37,-19,-18,-14,-128,-83,-148,-61,-41
-32,-36,-4,34,-14,-20,-15,-130,-84,-151,-59,-43
-30,-37,-7,34,-12,-22,-18,-137,-85,-155,-65,-48
-29,-38,-9,34,-10,-24,-18,-143,-86,-159,-64,-51
-33,-41,-8,37,-12,-24,-15,-150,-88,-166,-72,-52
-37,-43,-6,40,-15,-24,-13,-152,-87,-170,-75,-54
-37,-42,-5,40,-16,-23,-14,-153,-85,-171,-76,-53
-41,-46,-4,44,-19,-25,-14,-154,-82,-174,-81,-55
-42,-50,-8,46,-17,-29,-15,-155,-80,-174,-74,-56
-44,-54,-10,49,-17,-32,-12,-159,-79,-176,-77,-57
-45,-58,-13,51,-16,-35,-5,-163,-77,-177,-76,-59
-41,-61,-20,51,-11,-40,-6,-166,-78,-177,-72,-58
-40,-65,-25,53,-8,-45,-10,-166,-77,-178,-73,-59
-42,-68,-26,55,-8,-47,-7,-164,-75,-177,-67,-59
-50,-70,-20,60,-15,-44,-1,-162,-72,-179,-72,-56
-55,-72,-17,64,-19,-44,2,-161,-70,-178,-73,-57
-55,-73,-18,64,-18,-45,0,-162,-71,-176,-74,-57
-58,-72,-14,65,-22,-43,1,-162,-70,-178,-79,-58
-59,-67,-8,63,-25,-38,1,-160,-69,-178,-72,-59
-61,-68,-7,65,-27,-37,4,-158,-66,-177,-72,-57
-64,-72,-8,68,-28,-40,10,-154,-62,-173,-65,-56
-64,-76,-12,70,-26,-43,10,-151,-61,-169,-58,-54
-67,-81,-14,74,-27,-47,8,-151,-59,-167,-59,-55
-66,-83,-17,74,-24,-50,10,-148,-57,-164,-52,-55
-66,-84,-18,75,-24,-51,16,-146,-53,-164,-54,-54
-64,-88,-24,76,-20,-56,19,-143,-50,-163,-52,-55
-59,-92,-33,75,-13,-62,16,-142,-50,-161,-48,-55
-58,-97,-39,78,-10,-68,16,-139,-49,-161,-50,-56
-54,-100,-45,77,-4,-73,14,-134,-49,-158,-43,-55
-55,-102,-48,79,-4,-75,18,-131,-47,-157,-43,-54
-57,-104,-47,81,-5,-76,26,-127,-45,-155,-38,-56
-59,-106,-47,82,-6,-76,26,-122,-43,-152,-33,-56
-66,-109,-42,88,-12,-75,22,-116,-41,-149,-35,-60
-68,-110,-42,89,-13,-76,26,-112,-38,-146,-30,-63
-69,-111,-41,90,-14,-76,34,-113,-34,-148,-35,-65
-71,-113,-42,92,-14,-78,39,-110,-30,-148,-36,-69
-70,-116,-46,93,-12,-81,40,-105,-28,-148,-37,-71
-73,-119,-47,96,-13,-83,40,-99,-25,-147,-41,-70
-72,-121,-49,96,-11,-85,39,-90,-22,-144,-33,-67
-72,-123,-51,97,-10,-87,40,-84,-21,-143,-31,-64
-71,-126,-55,98,-8,-90,44,-77,-20,-141,-22,-65
-67,-126,-59,96,-4,-92,41,-74,-22,-139,-16,-66
-65,-126,-61,96,-2,-93,36,-74,-22,-140,-19,-70
-63,-125,-62,94,0,-93,35,-73,-23,-139,-15,-72
-64,-124,-60,94,-2,-92,38,-73,-24,-143,-21,-73
-65,-123,-58,94,-3,-91,40,-72,-25,-145,-20,-74
-63,-121,-58,92,-2,-89,37,-71,-27,-146,-17,-73
-63,-121,-58,92,-2,-89,35,-68,-24,-147,-19,-72
-57,-119,-62,88,2,-90,31,-62,-21,-145,-10,-70
-55,-118,-63,86,4,-91,29,-60,-22,-146,-9,-68
-52,-117,-65,85,7,-91,32,-56,-26,-146,-4,-69
-48,-116,-68,82,10,-92,29,-51,-28,-144,1,-66
-49,-117,-67,83,9,-92,26,-45,-25,-143,0,-64
-49,-117,-68,83,10,-92,28,-38,-23,-139,8,-59
-51,-117,-66,84,7,-91,31,-31,-21,-138,8,-51
-52,-117,-65,85,6,-91,32,-26,-21,-135,13,-47
-50,-115,-66,83,8,-90,27,-24,-23,-132,18,-40
-48,-114,-65,81,8,-89,23,-22,-24,-130,20,-37
-42,-110,-68,76,13,-89,20,-20,-25,-125,33,-35
-38,-107,-69,72,16,-88,20,-19,-25,-124,34,-32
-34,-104,-70,70,18,-87,25,-18,-25,-122,39,-30
-30,-101,-72,66,21,-86,22,-15,-27,-121,44,-26
-30,-100,-71,65,20,-85,14,-11,-29,-122,42,-23
-26,-98,-72,62,23,-85,13,-7,-30,-120,50,-19
-25,-97,-72,61,24,-84,14,-6,-29,-120,48,-15
-22,-95,-73,59,25,-84,15,-3,-29,-118,51,-12
-16,-91,-75,54,29,-83,13,-1,-30,-115,55,-6
-15,-88,-74,52,29,-81,9,0,-29,-114,55,-3
-9,-84,-75,47,33,-79,4,1,-28,-111,67,1
-10,-82,-72,46,31,-77,3,0,-29,-112,70,6
-12,-81,-68,47,28,-74,8,0,-29,-112,78,10
-13,-79,-66,46,27,-73,5,1,-29,-110,88,14
-17,-80,-63,49,23,-71,-1,2,-26,-107,92,16
-14,-78,-64,47,25,-71,-4,2,-26,-106,98,16
-11,-77,-66,44,27,-71,-4,0,-28,-110,91,16
-12,-78,-66,45,27,-72,-3,0,-29,-113,89,16
-12,-78,-66,45,27,-72,-5,1,-30,-115,87,19
-15,-78,-63,47,24,-71,-7,2,-31,-116,83,22
-13,-76,-62,45,25,-69,-11,5,-32,-111,93,26
-13,-74,-61,44,24,-67,-10,5,-32,-110,92,29
-12,-73,-61,43,25,-67,-4,7,-29,-108,98,28
-10,-71,-60,41,25,-65,-5,7,-28,-107,104,29
-15,-70,-55,43,20,-63,-8,7,-26,-109,105,29
-13,-66,-54,40,21,-60,-10,6,-25,-107,111,29
-12,-62,-51,37,20,-56,-12,2,-25,-106,107,31
-9,-61,-52,35,21,-56,-12,0,-25,-104,106,30
-3,-60,-57,32,27,-58,-15,-4,-28,-103,104,30
-1,-58,-57,30,28,-57,-19,-10,-30,-105,97,30
6,-52,-58,23,32,-54,-24,-15,-33,-106,100,32
12,-47,-59,18,36,-53,-27,-20,-35,-106,97,32
19,-45,-63,13,41,-54,-26,-23,-36,-103,102,28
24,-43,-67,9,46,-55,-29,-26,-37,-103,102,26
23,-44,-67,10,45,-55,-33,-29,-38,-106,94,22
24,-42,-66,9,45,-54,-33,-31,-39,-109,95,22
21,-40,-61,10,41,-50,-31,-33,-39,-116,87,24
17,-42,-59,12,38,-50,-30,-32,-39,-119,86,23
16,-44,-60,14,38,-51,-34,-31,-40,-120,85,24
10,-47,-57,19,33,-52,-37,-29,-41,-122,78,23
8,-48,-56,21,32,-52,-39,-26,-43,-122,81,23
7,-48,-55,21,31,-52,-38,-26,-44,-123,77,24
9,-47,-56,19,33,-51,-33,-26,-45,-122,81,23
11,-48,-60,19,35,-54,-34,-27,-46,-121,82,23
9,-53,-62,22,35,-57,-37,-27,-46,-123,75,20
7,-52,-59,23,33,-56,-36,-26,-45,-120,78,20
0,-50,-50,25,25,-50,-31,-25,-44,-119,73,21
-6,-50,-44,28,19,-47,-28,-26,-42,-117,71,20
-9,-49,-40,30,15,-44,-29,-30,-42,-115,69,21
-12,-50,-38,31,13,-44,-31,-30,-42,-115,64,21
-7,-49,-42,29,17,-45,-36,-27,-44,-113,71,22
-6,-50,-44,28,19,-47,-34,-30,-45,-113,69,23
-4,-52,-48,28,22,-50,-27,-33,-46,-113,73,22
1,-53,-54,27,27,-53,-28,-35,-46,-111,76,22
3,-56,-59,27,31,-57,-31,-37,-43,-109,72,19
8,-52,-60,23,34,-56,-30,-37,-41,-106,77,16
10,-45,-55,18,32,-50,-26,-38,-39,-108,72,15
11,-43,-53,16,32,-48,-24,-39,-37,-106,73,13
12,-42,-54,15,33,-48,-26,-41,-38,-105,73,15
6,-45,-50,20,28,-47,-28,-41,-36,-104,69,14
-1,-47,-46,24,23,-47,-31,-38,-34,-100,76,13
-6,-49,-44,28,19,-46,-29,-37,-33,-101,73,13
-8,-51,-44,30,18,-47,-22,-35,-34,-101,76,12
-7,-51,-44,29,19,-47,-25,-35,-36,-100,79,11
-9,-51,-42,30,17,-46,-31,-37,-38,-100,77,7
-7,-51,-44,29,19,-47,-33,-35,-39,-99,82,7
-7,-53,-46,30,19,-49,-32,-34,-37,-100,75,9
-5,-54,-49,30,22,-51,-30,-34,-34,-100,75,10
2,-53,-54,26,28,-53,-30,-35,-30,-100,76,15
2,-52,-54,25,28,-52,-32,-35,-27,-99,74,17
4,-48,-53,22,29,-50,-38,-34,-27,-94,85,20
4,-46,-50,21,27,-47,-37,-34,-27,-93,83,21
3,-43,-47,20,25,-45,-30,-33,-27,-92,86,19
3,-43,-45,20,24,-44,-31,-31,-28,-90,90,20
-2,-45,-43,24,20,-44,-35,-29,-28,-89,88,18
-3,-47,-44,25,21,-45,-36,-28,-30,-90,93,16
-4,-49,-44,27,20,-46,-34,-31,-31,-96,86,13
-6,-51,-45,29,20,-48,-33,-31,-32,-98,83,9
-6,-53,-47,30,21,-50,-35,-33,-34,-98,77,7
-9,-56,-47,33,19,-51,-36,-32,-33,-100,70,3
-8,-58,-50,33,21,-54,-38,-29,-33,-99,76,2
-7,-60,-53,34,23,-56,-36,-30,-33,-101,72,0
-5,-62,-57,34,26,-59,-30,-29,-33,-100,72,-2
-2,-63,-62,33,30,-62,-32,-27,-33,-99,73,-2
-2,-67,-64,35,31,-65,-37,-25,-30,-98,70,-4
-1,-69,-67,35,33,-68,-39,-22,-30,-96,74,-2
-4,-71,-67,38,32,-69,-39,-20,-29,-98,68,2
-4,-71,-67,38,32,-69,-37,-18,-28,-97,69,4
0,-67,-67,34,34,-67,-37,-20,-28,-97,70,9
-3,-64,-60,34,29,-62,-37,-20,-28,-98,70,13
-5,-57,-52,31,23,-54,-39,-18,-30,-95,81,18
-10,-51,-41,31,16,-46,-38,-18,-29,-94,81,19
-14,-45,-30,30,8,-37,-33,-17,-28,-90,87,15
-15,-41,-26,28,5,-33,-36,-17,-27,-87,90,15
-18,-41,-23,30,3,-32,-41,-17,-26,-87,86,13
-15,-39,-24,27,4,-31,-42,-17,-26,-86,90,12
-14,-37,-24,26,5,-30,-39,-19,-26,-89,83,10
-11,-39,-28,26,8,-33,-36,-20,-25,-90,81,6
-7,-43,-36,25,15,-39,-36,-23,-26,-91,78,3
-7,-47,-40,27,17,-43,-38,-25,-26,-94,71,1
-3,-48,-44,26,20,-46,-42,-23,-26,-96,75,0
-1,-47,-46,24,23,-46,-42,-24,-25,-98,73,1
2,-45,-47,22,25,-46,-37,-22,-25,-98,80,0
5,-43,-48,19,26,-45,-38,-21,-26,-98,84,1
1,-43,-45,21,23,-44,-39,-19,-25,-99,80,-1
0,-45,-45,23,23,-45,-40,-17,-26,-98,84,-1
-4,-49,-45,27,20,-46,-40,-18,-28,-102,76,0
-6,-51,-45,29,20,-47,-37,-18,-26,-103,75,0
-3,-50,-47,27,22,-48,-35,-18,-22,-104,74,3
-5,-52,-46,29,21,-49,-35,-18,-19,-105,71,4
-5,-53,-47,29,21,-50,-38,-18,-21,-102,80,4
-5,-53,-48,30,21,-50,-38,-19,-22,-100,79,7
-3,-53,-49,28,23,-51,-35,-19,-23,-97,85,8
0,-49,-49,25,24,-49,-37,-20,-24,-93,90,10
-2,-46,-44,24,21,-45,-39,-22,-22,-91,89,8
-1,-44,-42,23,20,-42,-39,-22,-23,-89,93,7
-5,-44,-38,25,16,-41,-37,-25,-24,-92,84,5
-7,-45,-37,26,15,-41,-35,-25,-25,-91,81,2
-6,-46,-40,26,17,-42,-35,-25,-27,-90,77,3
-8,-48,-39,28,15,-43,-36,-26,-26,-91,72,2
-7,-48,-41,28,17,-44,-40,-26,-26,-89,76,3
-7,-51,-44,29,18,-47,-39,-26,-25,-90,73,4
-6,-55,-49,31,22,-52,-33,-23,-25,-89,78,4
-4,-58,-54,32,25,-55,-36,-22,-27,-89,80,5
-8,-62,-55,35,24,-58,-42,-22,-29,-90,78,3
-7,-62,-56,35,25,-59,-43,-21,-30,-90,81,4
-8,-61,-53,35,22,-56,-42,-22,-29,-92,72,7
-9,-59,-50,34,21,-54,-40,-21,-28,-91,73,9
-7,-56,-49,32,21,-52,-40,-20,-29,-88,74,12
-7,-54,-47,31,20,-51,-41,-20,-30,-89,71,13
-2,-52,-50,27,24,-51,-43,-20,-32,-87,78,16
-1,-51,-50,26,25,-50,-41,-22,-33,-88,75,17
0,-51,-51,26,25,-51,-33,-23,-33,-86,81,16
-1,-51,-50,27,24,-50,-33,-24,-33,-85,83,15
-8,-54,-45,31,19,-49,-36,-25,-31,-84,80,10
-8,-55,-47,32,19,-50,-36,-23,-27,-82,84,9
-10,-57,-48,34,19,-52,-33,-22,-20,-84,79,8
-11,-55,-44,33,17,-49,-31,-19,-18,-83,79,9
-11,-49,-38,30,14,-43,-32,-18,-21,-83,76,13
-12,-46,-34,29,11,-40,-33,-17,-21,-83,72,16
-7,-43,-37,25,15,-39,-36,-16,-21,-79,80,23
-3,-42,-39,23,18,-40,-34,-17,-21,-80,75,24
2,-40,-43,19,23,-41,-26,-19,-21,-79,77,21
7,-41,-48,18,28,-45,-26,-18,-22,-79,77,21
6,-47,-53,21,29,-49,-29,-15,-21,-81,75,20
10,-49,-59,20,35,-54,-30,-12,-22,-81,76,17
11,-52,-63,21,37,-57,-29,-12,-23,-86,64,12
10,-54,-64,23,37,-59,-28,-12,-24,-86,62,7
7,-56,-63,25,35,-59,-29,-14,-24,-84,61,6
3,-56,-59,27,31,-57,-32,-16,-24,-84,57,4
4,-53,-57,25,31,-54,-37,-17,-24,-82,62,5
2,-50,-52,25,27,-51,-38,-19,-23,-81,60,8
-1,-48,-47,25,23,-47,-34,-19,-23,-78,67,11
-1,-46,-45,24,22,-45,-34,-20,-22,-75,72,15
-3,-46,-44,25,20,-44,-34,-20,-19,-71,74,16
-1,-47,-46,24,22,-46,-35,-19,-18,-67,80,18
-2,-49,-47,26,23,-48,-34,-19,-17,-69,73,19
1,-50,-52,25,26,-51,-33,-18,-17,-69,71,18
8,-50,-58,22,33,-54,-32,-19,-20,-70,67,19
8,-51,-58,22,33,-54,-32,-20,-20,-73,60,15
9,-48,-57,20,33,-52,-36,-21,-20,-74,63,12
10,-48,-58,20,34,-53,-34,-22,-20,-76,58,10
14,-49,-63,18,38,-56,-26,-21,-19,-74,62,8
16,-49,-65,17,41,-57,-25,-21,-18,-72,64,9
12,-52,-64,20,38,-57,-27,-19,-15,-70,63,8
12,-51,-63,20,37,-56,-28,-20,-16,-69,70,8
8,-51,-59,22,33,-54,-30,-24,-19,-71,65,7
4,-53,-58,25,31,-55,-29,-24,-19,-71,65,4
2,-57,-59,28,30,-57,-27,-24,-19,-73,61,2
0,-58,-58,29,29,-58,-29,-24,-18,-75,54,0
5,-55,-60,25,33,-57,-35,-24,-19,-76,55,-1
8,-53,-61,23,34,-57,-36,-24,-19,-79,50,-1
12,-51,-63,20,38,-57,-30,-24,-18,-79,55,0
13,-49,-62,18,37,-55,-31,-24,-18,-78,59,2
7,-48,-55,21,31,-51,-32,-24,-16,-77,62,3
6,-46,-52,20,29,-48,-33,-23,-14,-74,70,6
3,-46,-48,22,26,-47,-32,-22,-12,-74,65,10
-1,-47,-45,24,22,-46,-31,-20,-12,-72,67,11
-5,-48,-43,27,19,-45,-31,-19,-16,-72,65,15
-10,-51,-42,31,16,-46,-33,-18,-17,-74,61,14
-9,-53,-44,32,18,-48,-39,-17,-19,-76,65,14
-7,-53,-45,30,19,-49,-39,-18,-21,-79,59,11
-2,-49,-47,26,23,-48,-34,-19,-22,-80,61,5
3,-47,-50,23,27,-48,-33,-19,-24,-81,59,2
3,-49,-52,23,27,-50,-34,-19,-24,-82,54,-1
6,-48,-53,21,29,-50,-32,-17,-26,-82,56,0
4,-47,-51,22,28,-49,-29,-16,-26,-84,49,3
6,-45,-51,20,28,-47,-24,-14,-24,-83,52,3
9,-42,-51,17,30,-46,-21,-14,-23,-81,53,5
6,-43,-49,19,28,-46,-20,-12,-20,-79,51,5
5,-45,-49,20,27,-47,-21,-8,-18,-75,58,7
3,-47,-50,22,27,-48,-21,-7,-17,-75,55,9
6,-48,-54,22,30,-51,-18,-5,-16,-74,60,10
7,-50,-57,21,32,-53,-21,-5,-18,-74,62,10
5,-52,-57,24,31,-54,-26,-6,-20,-74,60,7
6,-51,-56,23,31,-53,-26,-8,-21,-75,64,8
4,-48,-52,22,28,-49,-25,-11,-20,-79,56,12
4,-46,-51,21,28,-48,-22,-14,-21,-80,55,10
6,-46,-52,21,29,-48,-21,-19,-22,-80,48,6
2,-47,-50,23,26,-48,-21,-21,-19,-81,43,5
2,-48,-49,23,26,-48,-23,-19,-14,-80,48,10
0,-49,-49,25,25,-49,-23,-18,-13,-80,46,13
2,-50,-52,25,27,-50,-18,-16,-15,-77,55,14
4,-50,-54,24,29,-51,-18,-13,-14,-74,60,15
2,-51,-54,25,28,-52,-18,-10,-11,-70,62,12
2,-52,-54,26,28,-53,-18,-7,-10,-66,67,9
-4,-55,-51,30,23,-53,-20,-6,-10,-67,59,5
-9,-57,-48,34,20,-52,-18,-6,-10,-66,56,-1
-14,-59,-46,37,16,-52,-16,-10,-11,-68,46,-4
-18,-62,-44,40,13,-53,-18,-12,-12,-68,37,-7
-15,-63,-48,40,16,-55,-23,-12,-14,-66,38,-5
-14,-64,-49,39,17,-56,-22,-13,-14,-66,33,-3
-11,-63,-52,37,21,-57,-16,-13,-15,-64,38,-1
-9,-63,-55,36,23,-59,-17,-13,-15,-61,41,4
-11,-66,-56,39,22,-60,-21,-13,-14,-57,43,7
-8,-63,-54,36,23,-58,-25,-15,-15,-54,50,7
-9,-57,-48,33,19,-52,-28,-20,-15,-56,45,5
-10,-53,-44,32,17,-48,-29,-23,-17,-57,45,1
-11,-51,-40,31,15,-45,-30,-27,-22,-58,38,-1
-13,-53,-40,33,14,-46,-33,-30,-24,-57,31,-5
-10,-55,-45,33,18,-50,-40,-31,-27,-52,33,-7
-10,-58,-48,34,19,-52,-43,-35,-30,-56,24,-10
-10,-61,-51,36,21,-55,-43,-38,-33,-61,21,-16
-10,-62,-53,36,22,-57,-49,-41,-36,-64,17,-18
-13,-65,-52,40,20,-58,-57,-41,-38,-65,12,-21
-12,-65,-54,39,21,-59,-66,-42,-41,-66,13,-26
-12,-65,-53,39,21,-59,-75,-46,-45,-71,4,-33
-12,-69,-57,41,22,-63,-78,-49,-50,-75,-1,-35
-13,-75,-62,45,25,-68,-81,-52,-58,-81,-11,-32
-14,-80,-66,48,26,-73,-86,-54,-64,-86,-17,-32
-10,-82,-72,46,31,-76,-95,-55,-70,-88,-11,-31
-8,-82,-74,45,33,-78,-99,-59,-75,-93,-17,-34
-4,-81,-77,43,37,-79,-98,-62,-79,-96,-17,-40
-4,-80,-76,42,36,-77,-100,-64,-85,-99,-20,-43
-11,-80,-70,46,30,-75,-101,-63,-89,-100,-24,-46
-13,-81,-68,47,28,-74,-99,-61,-91,-100,-22,-46
-18,-84,-66,52,24,-75,-94,-61,-88,-104,-30,-45
-22,-87,-64,55,21,-75,-84,-59,-83,-102,-29,-46
-26,-89,-63,58,18,-75,-74,-58,-76,-98,-32,-45
-30,-92,-63,61,17,-77,-66,-56,-69,-96,-34,-50
-27,-95,-68,61,20,-81,-62,-52,-64,-92,-29,-55
-25,-95,-69,61,22,-82,-51,-50,-57,-91,-33,-55
-21,-93,-72,57,26,-82,-35,-47,-49,-87,-29,-53
-20,-92,-72,56,26,-81,-26,-43,-41,-82,-25,-48
-25,-93,-68,59,22,-80,-19,-37,-31,-76,-21,-45
-26,-93,-66,60,20,-79,-14,-31,-24,-69,-12,-43
-31,-93,-61,62,15,-77,-11,-28,-17,-66,-15,-43
-31,-92,-61,62,15,-76,-7,-23,-14,-63,-13,-44
-27,-90,-63,59,18,-76,-6,-21,-14,-62,-18,-43
-23,-86,-63,55,20,-74,-7,-19,-12,-60,-22,-41
-13,-78,-65,46,26,-71,-10,-18,-11,-57,-17,-36
-13,-75,-62,44,24,-68,-9,-16,-8,-55,-19,-32
-15,-74,-59,45,22,-66,-3,-12,-6,-49,-12,-31
-17,-72,-55,45,19,-63,-2,-9,-5,-45,-9,-29
-21,-71,-50,47,14,-60,-1,-5,-3,-41,-9,-30
-20,-69,-49,45,15,-59,1,-2,-1,-36,-3,-27
-21,-68,-47,45,13,-57,4,0,4,-33,-6,-22
-20,-67,-48,44,14,-57,9,1,6,-28,-2,-25
-18,-67,-49,43,15,-57,13,-1,6,-23,-2,-31
-19,-66,-47,43,14,-56,15,-3,8,-20,-7,-32
-15,-61,-46,39,15,-53,14,-4,9,-17,-6,-26
-14,-56,-42,35,14,-49,14,-2,12,-14,-7,-17
-9,-49,-41,29,16,-44,19,3,15,-5,6,-5
-6,-44,-38,25,16,-40,17,4,14,0,13,1
-7,-40,-33,24,13,-36,13,3,13,2,17,0
-3,-35,-32,20,14,-33,11,2,12,4,22,0
-2,-31,-29,17,14,-30,8,-2,15,1,16,-1
-1,-27,-26,14,13,-26,10,-2,16,2,17,-1
-2,-23,-21,13,9,-21,13,-2,15,4,14,1
-5,-22,-17,14,6,-19,13,-2,16,4,10,-1
-3,-21,-18,13,7,-19,9,-2,16,5,14,-4
-5,-22,-17,14,6,-19,9,-4,15,3,8,-8
-5,-23,-19,14,7,-21,12,-4,12,1,11,-13
-6,-25,-20,16,7,-22,14,-4,11,0,9,-16
-11,-30,-19,21,4,-24,17,-1,12,-1,6,-20
-11,-30,-20,21,5,-25,19,1,12,-1,7,-22
-13,-31,-19,22,3,-24,20,3,14,-4,-2,-22
-12,-31,-19,22,3,-24,22,3,14,-4,-2,-21
-11,-29,-18,20,4,-23,22,0,14,-6,-6,-16
-13,-29,-16,21,2,-22,19,-1,14,-5,-6,-13
-11,-27,-17,19,3,-22,11,-1,12,-1,3,-9
-11,-25,-14,19,2,-19,9,-4,10,-3,0,-6
-9,-22,-13,16,2,-17,13,-5,8,-5,4,-4
-6,-17,-11,12,3,-14,12,-6,7,-4,4,-1
-6,-13,-7,10,1,-10,9,-6,8,-2,4,0
-2,-7,-5,5,2,-6,8,-3,9,1,9,-1
-3,-3,0,3,-1,-1,8,1,11,-1,4,-4
-4,-3,1,4,-2,-1,10,4,13,0,5,-8
-7,-5,1,6,-4,-2,11,3,13,0,-1,-12
-8,-6,2,7,-5,-2,8,4,14,-1,-7,-11
-2,-4,-1,3,0,-2,2,5,13,-1,-6,-6
0,-3,-4,2,2,-3,0,4,12,-4,-9,-2
5,-4,-9,0,7,-6,3,4,10,-5,1,1
7,-4,-11,-1,9,-7,2,1,7,-6,3,1
4,-5,-10,1,7,-7,-1,-3,5,-6,2,-4
4,-2,-6,-1,5,-4,-4,-13,-1,-9,2,-9
-1,3,4,0,-3,4,-7,-28,-8,-17,-11,-16
-8,2,10,3,-9,7,-2,-47,-12,-25,-24,-34
-16,-1,16,9,-16,8,6,-72,-15,-37,-47,-58
-30,-10,20,20,-25,5,22,-89,-12,-51,-78,-96
-41,-23,19,32,-30,-1,42,-100,-7,-64,-106,-143
-61,-41,19,51,-40,-10,74,-106,3,-81,-151,-205
-80,-64,17,73,-48,-23,115,-104,16,-97,-193,-280
-107,-100,8,104,-58,-46,160,-101,35,-113,-247,-368
-142,-148,-5,145,-69,-76,209,-94,60,-128,-309,-468
-177,-201,-24,190,-77,-112,266,-83,86,-144,-373,-576
-219,-261,-42,241,-89,-151,328,-70,115,-165,-451,-690
-271,-330,-60,301,-106,-195,395,-47,152,-175,-518,-816
-330,-405,-75,368,-128,-240,463,-19,194,-179,-589,-947
-388,-483,-95,436,-147,-288,514,12,234,-184,-661,-1079
-439,-560,-121,500,-159,-340,553,44,270,-186,-729,-1208
-478,-623,-144,551,-167,-383,577,77,308,-174,-787,-1283
-505,-674,-169,589,-168,-421,593,112,347,-148,-822,-1316
-504,-713,-208,609,-148,-460,592,169,388,-94,-804,-1282
-487,-744,-257,616,-115,-500,580,245,432,-19,-742,-1197
-441,-747,-305,594,-68,-526,552,322,468,69,-630,-1063
-381,-730,-349,555,-16,-539,512,399,499,166,-491,-888
-320,-683,-363,502,21,-522,470,459,529,269,-324,-698
-261,-613,-353,437,46,-483,424,504,556,376,-144,-492
-204,-530,-327,367,61,-428,371,535,579,476,30,-301
-144,-434,-290,290,73,-362,313,554,596,572,208,-120
-92,-337,-244,215,76,-290,259,558,601,646,347,30
-44,-236,-193,140,75,-214,210,549,594,704,470,150
-5,-149,-144,77,70,-146,167,524,573,735,552,230
23,-73,-96,25,60,-84,129,485,542,745,601,276
47,-17,-65,-15,56,-41,98,439,499,727,615,292
63,20,-43,-41,53,-11,71,387,449,683,587,287
73,43,-29,-58,51,8,56,340,399,631,547,274
78,55,-22,-66,50,17,46,295,346,568,487,259
80,65,-15,-73,48,25,38,260,298,507,431,244
86,75,-11,-80,49,32,30,231,252,449,386,232
88,81,-7,-84,47,37,27,203,212,393,337,219
89,85,-4,-87,47,41,29,179,176,345,300,204
88,87,-1,-87,45,43,27,154,144,301,262,185
83,88,5,-85,39,47,26,131,119,262,226,158
79,88,9,-83,35,48,24,109,96,227,191,134
71,85,14,-78,29,49,20,87,77,190,146,111
65,79,14,-72,25,47,18,73,59,163,117,94
60,72,12,-65,24,42,16,62,42,140,88,83
59,63,5,-61,27,34,9,54,27,121,64,73
65,57,-8,-60,36,25,-1,48,13,106,51,66
66,49,-17,-57,42,16,-4,42,1,88,32,62
68,43,-25,-55,46,10,-1,37,-11,73,24,59
65,38,-27,-51,46,6,-1,34,-20,62,16,58
55,32,-23,-43,39,5,0,34,-25,55,10,57
52,34,-18,-42,35,8,-2,32,-29,49,7,52
48,39,-9,-43,28,15,-4,27,-31,40,-7,45
48,40,-8,-44,28,16,-3,25,-32,36,-15,36
51,37,-14,-44,33,12,0,23,-34,32,-30,31
52,34,-18,-43,35,9,-6,19,-38,27,-42,26
57,33,-25,-45,41,4,-19,12,-45,24,-48,24
60,33,-26,-46,43,4,-18,6,-48,20,-56,27
64,37,-27,-50,46,5,-6,1,-49,19,-52,31
64,36,-28,-50,46,5,-4,-4,-51,19,-49,32
59,32,-27,-45,43,3,-6,-7,-52,20,-46,28
58,31,-27,-44,42,2,-8,-10,-54,19,-44,24
53,29,-25,-41,39,2,-9,-14,-55,13,-55,18
50,27,-23,-38,36,2,-6,-13,-55,12,-59,13
45,24,-20,-34,33,2,-2,-11,-55,10,-68,12
43,22,-20,-32,31,1,-4,-10,-56,10,-74,11
47,22,-25,-35,36,-1,-10,-11,-61,11,-74,12
49,23,-26,-36,37,-1,-13,-12,-64,7,-81,12
53,26,-27,-39,40,0,-10,-12,-68,2,-79,10
51,23,-28,-37,40,-2,-8,-14,-69,0,-80,10
44,16,-28,-30,36,-6,-4,-15,-67,1,-80,9
43,15,-28,-29,35,-6,-3,-16,-65,2,-78,8
39,17,-22,-28,31,-2,-4,-17,-60,0,-88,5
38,22,-16,-30,27,3,-1,-14,-57,3,-87,5
36,28,-8,-32,22,10,1,-11,-57,6,-90,9
35,30,-5,-32,20,13,-1,-8,-56,9,-92,10
41,31,-10,-36,25,11,-9,-8,-58,12,-88,11
41,28,-13,-34,27,8,-12,-9,-60,12,-92,10
42,24,-19,-33,30,3,-13,-11,-64,13,-88,7
43,19,-24,-31,33,-2,-13,-14,-66,12,-90,6
40,14,-27,-27,33,-6,-12,-16,-66,12,-93,5
43,13,-29,-28,36,-8,-14,-19,-65,12,-91,4
42,15,-27,-28,35,-6,-17,-24,-63,10,-99,3
43,17,-27,-30,35,-5,-16,-27,-63,11,-101,0
44,18,-26,-31,35,-3,-14,-31,-63,11,-111,-1
42,19,-23,-30,32,-2,-14,-32,-62,11,-117,-1
43,21,-22,-32,32,0,-18,-30,-61,13,-115,4
43,23,-20,-32,31,1,-18,-28,-60,13,-117,11
46,25,-21,-35,34,2,-15,-23,-58,16,-108,18
48,30,-18,-39,33,6,-14,-21,-59,17,-105,19
47,35,-11,-41,29,12,-14,-20,-59,17,-102,13
48,41,-7,-44,27,17,-15,-20,-59,17,-99,11
45,45,0,-45,22,23,-16,-20,-56,14,-109,9
43,46,3,-44,20,25,-11,-19,-56,16,-110,8
41,44,4,-42,18,24,-7,-19,-56,16,-117,8
38,42,5,-40,17,24,-9,-17,-56,17,-121,7
40,43,3,-41,19,23,-20,-15,-57,18,-118,7
39,41,2,-40,19,21,-22,-16,-57,17,-124,5
42,40,-2,-41,22,19,-17,-17,-58,18,-122,2
45,36,-9,-41,27,14,-17,-18,-59,19,-126,1
48,30,-18,-38,33,6,-18,-18,-60,20,-128,-4
52,28,-24,-40,38,2,-20,-19,-63,21,-126,-4
52,27,-25,-39,39,1,-23,-22,-64,19,-132,-4
53,25,-28,-39,41,-1,-21,-24,-65,19,-131,-3
53,22,-32,-37,42,-5,-18,-27,-65,17,-137,2
50,22,-28,-35,39,-3,-19,-28,-64,18,-139,3
48,26,-22,-37,35,2,-27,-27,-64,22,-135,5
46,31,-15,-38,31,8,-30,-29,-65,24,-138,5
48,37,-11,-43,29,14,-31,-31,-66,28,-132,3
48,39,-9,-44,29,15,-31,-33,-67,28,-135,2
46,37,-9,-41,28,14,-27,-34,-66,27,-138,-1
43,35,-8,-39,25,13,-27,-36,-66,27,-137,-4
33,31,-3,-32,18,14,-30,-40,-64,23,-144,-9
27,30,3,-28,12,16,-27,-41,-63,24,-142,-11
21,29,9,-25,6,19,-21,-40,-61,25,-146,-9
16,27,11,-22,2,20,-20,-37,-58,25,-149,-9
17,27,9,-22,4,18,-23,-32,-55,27,-147,-6
17,23,6,-20,6,15,-26,-33,-56,25,-154,-6
22,20,-2,-21,12,9,-28,-34,-59,25,-152,-7
23,22,-1,-22,12,10,-28,-36,-61,24,-154,-5
22,27,5,-24,8,16,-25,-37,-60,25,-154,-2
25,33,8,-29,8,21,-28,-36,-60,28,-150,-3
26,39,13,-32,7,26,-33,-35,-60,28,-155,-8
28,41,13,-34,8,27,-33,-36,-60,29,-157,-10
29,40,11,-34,9,25,-30,-38,-58,25,-169,-8
29,37,8,-33,11,23,-30,-41,-58,23,-175,-8
34,36,2,-35,16,19,-35,-44,-59,22,-174,-6
34,33,-1,-34,18,16,-40,-47,-60,18,-178,-6
37,31,-7,-34,22,12,-45,-49,-61,15,-171,-9
36,31,-6,-33,21,13,-48,-53,-63,12,-173,-11
31,32,0,-31,15,16,-47,-56,-65,10,-176,-17
27,32,4,-29,11,18,-51,-57,-65,9,-176,-23
18,29,11,-24,3,20,-55,-57,-63,6,-187,-31
14,27,13,-21,1,20,-55,-58,-61,6,-188,-33
11,25,14,-18,-1,20,-52,-62,-60,4,-197,-29
12,24,12,-18,0,18,-51,-66,-59,3,-202,-29
20,26,6,-23,7,16,-54,-71,-61,3,-200,-27
18,27,9,-22,5,18,-55,-73,-61,2,-206,-27
15,29,14,-21,0,21,-52,-70,-60,3,-201,-26
13,26,13,-19,0,19,-51,-69,-59,3,-203,-27
12,19,8,-15,2,13,-49,-68,-57,4,-202,-33
13,15,2,-14,5,9,-49,-67,-56,4,-201,-35
9,10,1,-10,4,6,-49,-66,-55,1,-211,-37
9,11,2,-10,4,6,-47,-65,-55,1,-210,-37
8,13,5,-10,1,9,-44,-66,-55,1,-214,-35
7,15,8,-11,0,11,-42,-66,-55,2,-215,-36
11,18,7,-15,2,12,-45,-65,-56,6,-211,-36
11,18,7,-15,2,12,-45,-67,-56,6,-216,-36
14,18,4,-16,5,11,-42,-68,-55,8,-211,-34
10,15,4,-12,3,10,-40,-70,-55,9,-209,-30
0,8,8,-4,-4,8,-37,-70,-54,12,-204,-28
1,9,8,-5,-4,9,-38,-70,-55,15,-195,-27
3,13,10,-8,-3,11,-41,-71,-56,15,-197,-29
6,15,9,-10,-2,12,-40,-70,-56,17,-193,-35
6,15,9,-11,-2,13,-38,-70,-56,16,-199,-42
5,14,9,-9,-2,12,-34,-69,-51,13,-206,-47
9,14,5,-11,2,9,-31,-67,-47,11,-211,-45
7,10,3,-9,2,7,-29,-66,-43,11,-214,-43
8,7,-1,-7,4,3,-27,-63,-41,18,-201,-39
7,2,-5,-4,6,-2,-26,-62,-41,21,-196,-37
3,-6,-9,2,6,-7,-23,-63,-42,23,-192,-39
5,-7,-13,1,9,-10,-22,-62,-42,24,-187,-39
5,-7,-12,1,8,-9,-22,-61,-40,22,-193,-41
3,-8,-11,2,7,-9,-18,-57,-39,23,-190,-44
-3,-10,-7,6,2,-8,-14,-55,-39,23,-194,-47
-6,-13,-6,10,0,-9,-12,-53,-38,23,-197,-49
-3,-13,-10,8,3,-11,-14,-51,-40,25,-196,-48
-3,-15,-11,9,4,-13,-14,-49,-40,24,-199,-44
1,-15,-15,7,8,-15,-10,-43,-40,27,-191,-38
2,-13,-15,5,9,-14,-7,-37,-38,30,-185,-32
2,-11,-13,5,7,-12,-1,-27,-35,34,-175,-28
5,-8,-12,2,9,-10,-1,-21,-34,38,-165,-24
3,-7,-10,2,7,-8,-3,-20,-33,39,-166,-23
4,-9,-12,3,8,-10,-1,-18,-32,40,-161,-25
2,-13,-15,6,9,-14,2,-19,-32,38,-167,-30
1,-21,-22,10,12,-22,3,-18,-32,37,-170,-37
6,-29,-35,12,20,-32,2,-16,-32,38,-170,-45
4,-36,-41,16,22,-38,4,-14,-31,36,-177,-52
5,-42,-46,19,25,-44,8,-10,-29,36,-174,-57
4,-49,-53,23,29,-51,13,-7,-29,33,-178,-59
2,-59,-60,28,31,-59,22,-4,-27,30,-179,-60
2,-64,-65,31,34,-64,23,-1,-28,30,-176,-59
-4,-68,-64,36,30,-66,20,1,-28,29,-180,-58
-8,-69,-61,38,27,-65,22,3,-28,30,-177,-59
-13,-67,-53,40,20,-60,25,3,-29,27,-181,-61
-18,-67,-49,43,15,-58,25,4,-30,26,-183,-61
-17,-67,-50,42,16,-58,20,3,-34,27,-181,-59
-21,-67,-45,44,12,-56,18,4,-34,25,-184,-57
-22,-64,-42,43,10,-53,18,8,-34,24,-178,-56
-23,-62,-39,43,8,-51,18,11,-35,23,-178,-59
-25,-62,-37,44,6,-50,20,16,-35,23,-177,-66
-21,-61,-40,41,10,-51,19,19,-38,23,-177,-69
-19,-63,-43,41,12,-53,17,20,-41,19,-188,-73
-17,-67,-50,42,17,-59,20,21,-43,18,-188,-75
-16,-73,-57,45,20,-65,26,20,-44,14,-195,-75
-15,-77,-62,46,23,-70,27,21,-46,13,-198,-78
-9,-77,-68,43,30,-73,22,23,-49,14,-196,-78
-10,-77,-68,44,29,-73,20,22,-49,12,-202,-82
-10,-76,-66,43,28,-71,20,23,-49,13,-197,-88
-9,-77,-68,43,30,-72,18,22,-49,10,-201,-91
-8,-81,-72,45,32,-76,17,22,-49,6,-203,-93
-5,-80,-75,43,35,-78,12,21,-50,4,-203,-94
-6,-80,-74,43,34,-77,7,18,-50,1,-211,-94
-8,-78,-71,43,32,-74,5,18,-51,0,-210,-95
-13,-76,-64,44,25,-70,4,17,-52,-3,-216,-94
-14,-72,-58,43,22,-65,2,18,-52,-4,-218,-92
-9,-65,-56,37,24,-61,-4,19,-53,-3,-215,-86
-6,-61,-56,33,25,-58,-6,19,-53,-4,-216,-80
2,-58,-60,28,31,-59,-7,19,-53,0,-205,-75
3,-56,-59,26,31,-58,-7,19,-55,1,-202,-69
-1,-57,-55,29,27,-56,-4,22,-55,3,-196,-66
-1,-55,-54,28,26,-54,-7,22,-57,5,-189,-63
-4,-54,-50,29,23,-52,-12,22,-57,3,-191,-60
-5,-57,-52,31,24,-55,-12,23,-57,4,-185,-57
-8,-62,-54,35,23,-58,-10,23,-59,2,-188,-53
-10,-65,-55,37,22,-60,-11,23,-61,0,-190,-50
-7,-63,-56,35,24,-59,-17,20,-65,-3,-190,-44
-6,-61,-55,33,24,-58,-21,19,-68,-5,-194,-43
0,-56,-56,28,28,-56,-22,19,-70,-4,-186,-45
6,-52,-58,23,32,-55,-23,17,-73,-5,-188,-45
10,-50,-60,20,35,-55,-20,15,-75,-7,-188,-45
17,-46,-63,14,40,-54,-22,12,-76,-7,-185,-44
20,-43,-63,12,42,-53,-27,9,-75,-9,-188,-44
19,-43,-62,12,41,-52,-27,6,-76,-10,-185,-45
13,-44,-56,15,35,-50,-26,0,-79,-15,-192,-47
8,-44,-52,18,30,-48,-28,-5,-82,-18,-196,-49
8,-42,-50,17,29,-46,-35,-9,-86,-21,-198,-48
7,-40,-47,17,27,-44,-39,-13,-90,-24,-206,-50
10,-38,-48,14,29,-43,-41,-15,-94,-24,-205,-53
12,-37,-48,13,30,-43,-41,-19,-98,-27,-210,-55
13,-37,-49,12,31,-43,-35,-22,-100,-30,-211,-59
14,-37,-51,12,33,-44,-35,-23,-102,-32,-211,-59
10,-41,-50,15,30,-45,-36,-23,-101,-35,-219,-59
8,-42,-49,17,28,-45,-34,-25,-101,-35,-219,-60
3,-42,-45,20,24,-43,-31,-29,-101,-37,-227,-60
1,-42,-43,21,22,-43,-31,-33,-102,-38,-232,-60
5,-41,-46,18,25,-43,-37,-38,-106,-38,-235,-58
3,-41,-43,19,23,-42,-40,-41,-107,-42,-241,-59
3,-40,-42,19,22,-41,-40,-41,-106,-43,-237,-61
3,-38,-41,18,22,-40,-41,-43,-104,-43,-239,-64
3,-38,-41,17,22,-39,-38,-44,-100,-41,-238,-69
6,-35,-41,15,24,-38,-39,-45,-98,-40,-235,-70
4,-34,-39,15,21,-36,-40,-46,-95,-40,-240,-72
6,-34,-40,14,23,-37,-37,-44,-94,-40,-236,-74
5,-35,-40,15,23,-38,-33,-44,-94,-42,-241,-76
2,-38,-40,18,21,-39,-32,-47,-94,-43,-244,-77
0,-40,-41,20,21,-41,-35,-52,-94,-44,-245,-74
-4,-41,-37,23,16,-39,-37,-57,-94,-46,-250,-75
-5,-39,-34,22,14,-37,-39,-60,-96,-45,-245,-77
-7,-37,-30,22,11,-33,-39,-63,-96,-45,-246,-76
-9,-34,-25,22,8,-30,-36,-63,-95,-42,-241,-75
-8,-32,-24,20,8,-28,-38,-64,-96,-39,-236,-73
-12,-33,-21,22,5,-27,-41,-67,-94,-37,-239,-72
-11,-32,-20,22,4,-26,-40,-66,-92,-34,-234,-71
-13,-31,-18,22,2,-25,-36,-66,-89,-35,-238,-69
-14,-29,-15,22,0,-22,-36,-65,-87,-35,-238,-70
-11,-25,-13,18,1,-19,-39,-65,-87,-35,-233,-69
-11,-23,-12,17,0,-18,-41,-66,-88,-36,-235,-71
-6,-22,-15,14,4,-18,-43,-68,-89,-34,-228,-75
-4,-21,-16,12,6,-18,-40,-70,-89,-34,-228,-76
-3,-20,-17,11,7,-19,-33,-72,-86,-33,-225,-78
1,-21,-22,10,12,-21,-33,-74,-85,-32,-224,-78
1,-25,-26,12,13,-25,-36,-76,-83,-34,-232,-81
6,-26,-32,10,19,-29,-34,-77,-82,-34,-229,-80
9,-28,-37,9,23,-32,-29,-80,-82,-37,-234,-77
10,-27,-37,8,24,-32,-25,-79,-80,-39,-233,-75
13,-23,-36,5,24,-29,-25,-77,-77,-40,-229,-71
8,-22,-30,7,19,-26,-24,-74,-74,-43,-229,-67
5,-20,-24,8,14,-22,-24,-70,-73,-43,-218,-62
1,-18,-19,8,10,-18,-22,-69,-72,-43,-216,-57
-1,-15,-13,8,6,-14,-17,-69,-70,-40,-211,-57
-2,-12,-10,7,4,-11,-19,-67,-71,-36,-206,-55
-7,-11,-4,9,-1,-7,-25,-65,-71,-36,-209,-56
-9,-9,0,9,-4,-5,-24,-64,-70,-34,-206,-55
-13,-10,4,11,-9,-3,-19,-67,-67,-35,-212,-53
-15,-9,5,12,-10,-2,-17,-66,-66,-34,-213,-52
-10,-8,3,9,-6,-3,-19,-63,-67,-31,-210,-50
-10,-7,3,9,-7,-2,-20,-61,-64,-30,-210,-48
-7,-6,2,6,-4,-2,-21,-57,-61,-25,-199,-47
-4,-6,-2,5,-1,-4,-21,-59,-59,-24,-198,-45
0,-7,-7,3,4,-7,-18,-62,-58,-22,-195,-46
3,-8,-11,2,7,-10,-21,-64,-61,-22,-191,-46
0,-11,-11,5,5,-11,-26,-65,-64,-26,-196,-49
1,-11,-12,5,7,-12,-24,-65,-65,-28,-193,-49
1,-12,-12,6,6,-12,-17,-64,-63,-31,-199,-46
-1,-16,-14,8,7,-15,-14,-64,-61,-31,-199,-47
0,-20,-20,10,10,-20,-18,-66,-60,-29,-195,-47
-2,-22,-20,12,9,-21,-19,-68,-59,-30,-199,-47
0,-20,-20,10,10,-20,-20,-70,-60,-30,-194,-45
1,-18,-20,8,11,-19,-18,-68,-59,-30,-194,-44
4,-16,-20,6,12,-18,-13,-59,-56,-28,-188,-44
6,-14,-21,4,14,-18,-15,-56,-55,-26,-182,-42
4,-15,-19,5,11,-17,-21,-57,-54,-27,-184,-42
5,-12,-17,3,11,-15,-21,-56,-52,-25,-179,-39
5,-9,-13,2,9,-11,-17,-57,-50,-25,-182,-35
4,-5,-9,0,7,-7,-16,-55,-49,-25,-182,-34
7,0,-6,-4,7,-3,-20,-55,-50,-25,-179,-31
4,0,-4,-2,4,-2,-20,-52,-49,-25,-180,-29
3,-3,-5,0,4,-4,-18,-46,-47,-22,-170,-26
2,-2,-4,0,3,-3,-16,-44,-47,-23,-170,-23
3,2,-1,-3,2,0,-11,-44,-46,-23,-166,-23
5,4,-1,-4,3,1,-13,-45,-48,-22,-162,-23
1,2,1,-1,0,1,-17,-46,-48,-23,-165,-25
0,1,0,-1,0,0,-15,-45,-48,-23,-162,-27
-2,-1,1,1,-1,0,-11,-44,-47,-26,-169,-27
-4,-4,0,4,-2,-2,-8,-41,-45,-28,-172,-28
-3,-7,-4,5,1,-6,-10,-39,-45,-28,-173,-28
-1,-10,-9,5,4,-10,-12,-39,-46,-31,-178,-28
9,-11,-20,1,14,-15,-15,-38,-50,-32,-174,-28
13,-9,-22,-2,17,-16,-16,-39,-51,-33,-176,-26
12,-7,-19,-3,15,-13,-12,-37,-47,-34,-173,-25
10,-7,-16,-2,13,-11,-12,-35,-46,-32,-168,-23
0,-10,-10,5,5,-10,-13,-31,-44,-32,-169,-23
-2,-12,-9,7,4,-10,-12,-29,-44,-31,-162,-23
-4,-13,-9,8,3,-11,-11,-31,-44,-34,-165,-22
-7,-17,-10,12,2,-14,-12,-33,-45,-35,-165,-26
-7,-21,-14,14,3,-18,-18,-36,-48,-35,-164,-28
-8,-26,-18,17,5,-22,-25,-39,-51,-38,-171,-32
-2,-30,-27,16,12,-29,-33,-41,-55,-40,-169,-35
0,-33,-33,16,17,-33,-37,-45,-60,-46,-175,-36
3,-36,-38,16,20,-37,-35,-47,-65,-51,-177,-38
4,-38,-42,17,23,-40,-42,-48,-71,-55,-176,-38
0,-42,-42,21,21,-42,-51,-48,-75,-59,-181,-42
0,-42,-42,21,21,-42,-57,-47,-80,-61,-178,-44
0,-41,-40,20,20,-40,-61,-49,-86,-64,-186,-46
-4,-41,-37,22,17,-39,-67,-51,-92,-68,-190,-51
-6,-42,-35,24,14,-38,-77,-55,-101,-73,-194,-55
-11,-44,-33,27,11,-38,-82,-58,-108,-79,-201,-59
-10,-44,-34,27,12,-39,-86,-58,-115,-84,-198,-61
-9,-46,-37,28,14,-42,-87,-61,-121,-88,-202,-63
-7,-49,-41,28,17,-45,-82,-63,-125,-89,-200,-67
-6,-50,-44,28,19,-47,-83,-63,-129,-89,-197,-69
-9,-53,-43,31,17,-48,-85,-62,-130,-91,-200,-71
-7,-53,-45,30,19,-49,-81,-61,-129,-91,-195,-72
-6,-52,-46,29,20,-49,-73,-61,-126,-94,-200,-71
-8,-52,-44,30,18,-48,-62,-59,-120,-94,-202,-72
-8,-51,-43,30,17,-47,-51,-57,-114,-93,-202,-71
-17,-52,-35,35,9,-44,-39,-51,-105,-90,-204,-71
-26,-53,-26,39,0,-40,-27,-40,-95,-84,-193,-71
-31,-55,-24,43,-4,-39,-15,-35,-86,-80,-192,-69
-33,-59,-26,46,-3,-43,-1,-30,-75,-75,-187,-69
-30,-59,-29,45,-1,-44,4,-28,-67,-70,-181,-67
-30,-59,-29,45,-1,-44,3,-26,-57,-66,-181,-67
-29,-59,-30,44,1,-45,7,-23,-48,-61,-173,-65
-31,-61,-30,46,0,-45,12,-21,-39,-58,-173,-61
-32,-60,-28,46,-2,-44,16,-17,-32,-52,-168,-57
-29,-56,-27,43,-1,-42,16,-14,-29,-46,-162,-51
-29,-55,-26,42,-2,-40,15,-14,-25,-41,-159,-45
-24,-53,-28,38,2,-41,11,-13,-25,-34,-146,-40
-23,-51,-28,37,2,-39,13,-13,-23,-30,-142,-36
-23,-49,-26,36,1,-38,20,-10,-19,-26,-134,-34
-22,-46,-23,34,1,-35,20,-7,-16,-23,-127,-31
-26,-43,-17,34,-4,-30,16,-5,-12,-21,-128,-30
-26,-38,-12,32,-7,-25,17,-3,-9,-18,-122,-29
-28,-33,-6,30,-11,-20,22,-4,-6,-17,-125,-26
-28,-29,-1,29,-14,-15,25,-3,-2,-14,-124,-27
-26,-24,2,25,-14,-11,23,-3,0,-8,-121,-26
-26,-20,6,23,-16,-7,22,-6,2,-6,-124,-28
-21,-15,6,18,-13,-4,19,-8,4,-2,-117,-30
-20,-10,11,15,-15,0,20,-10,5,-1,-118,-29
-21,-5,16,13,-19,5,24,-10,6,2,-114,-30
-20,1,21,10,-21,11,23,-9,6,5,-109,-27
-23,6,29,8,-26,18,21,-9,8,7,-110,-25
-23,12,35,5,-29,24,20,-7,10,10,-102,-21
-26,18,44,4,-35,31,21,-5,12,9,-103,-16
-31,19,50,6,-41,35,21,-5,12,11,-102,-14
-35,20,55,7,-45,37,18,-6,10,12,-100,-12
-40,19,59,11,-49,39,16,-6,9,13,-99,-12
-39,18,58,10,-49,38,13,-5,7,16,-85,-13
-39,17,57,11,-48,37,12,-6,5,15,-85,-14
-37,15,52,11,-44,33,15,-7,3,13,-86,-17
-32,14,46,9,-39,30,12,-8,1,13,-83,-18
-31,11,42,10,-36,26,7,-9,0,12,-85,-21
-28,11,39,9,-34,25,7,-7,0,13,-80,-21
-30,10,41,10,-35,25,10,-7,1,12,-86,-18
-28,14,42,7,-35,28,9,-7,1,11,-86,-17
-20,21,42,0,-31,31,3,-9,-1,11,-85,-13
-18,28,46,-5,-32,37,-4,-11,-2,10,-87,-10
-13,35,49,-11,-31,42,-11,-11,-4,11,-77,-7
-11,41,52,-15,-32,47,-12,-12,-4,11,-76,-4
-9,45,54,-18,-32,50,-7,-12,-3,13,-70,-5
-8,47,55,-19,-32,51,-9,-15,-4,13,-65,-5
-13,45,58,-16,-36,51,-14,-18,-4,11,-68,-9
-13,45,58,-16,-36,51,-14,-19,-4,11,-63,-9
-15,45,60,-15,-37,52,-11,-22,-4,9,-69,-7
-15,44,59,-14,-37,51,-11,-22,-4,8,-69,-7
-13,43,56,-15,-35,50,-15,-22,-6,8,-69,-5
-10,43,53,-16,-32,48,-18,-20,-7,6,-72,-6
-1,44,46,-22,-23,45,-21,-16,-9,6,-63,-6
1,44,44,-23,-21,44,-20,-15,-10,4,-65,-4
1,43,43,-22,-21,43,-14,-14,-10,5,-62,-2
2,44,43,-23,-20,43,-15,-14,-11,5,-58,-1
-1,44,45,-21,-23,44,-20,-15,-9,4,-60,-4
1,47,46,-24,-23,47,-22,-19,-12,3,-58,-7
1,51,50,-26,-25,51,-23,-27,-16,-2,-68,-9
0,57,58,-28,-29,57,-25,-41,-21,-7,-77,-16
-1,66,67,-32,-34,66,-30,-61,-29,-13,-87,-22
-11,67,78,-28,-45,72,-29,-83,-33,-25,-106,-40
-21,65,86,-22,-54,76,-24,-104,-37,-37,-118,-65
-34,55,89,-10,-62,72,-7,-115,-37,-52,-145,-101
-48,38,87,5,-68,62,20,-117,-33,-68,-173,-148
-66,15,81,25,-73,48,44,-118,-27,-85,-209,-209
-91,-16,75,53,-83,30,70,-116,-16,-106,-258,-284
-118,-53,65,86,-91,6,108,-113,-2,-126,-309,-376
-153,-99,54,126,-104,-22,155,-111,15,-150,-377,-481
-194,-156,38,175,-116,-59,213,-101,43,-169,-445,-598
-237,-222,16,230,-127,-103,276,-88,78,-184,-518,-720
-287,-296,-8,292,-140,-152,337,-66,116,-195,-592,-852
-336,-373,-36,354,-150,-205,394,-36,156,-197,-653,-989
-383,-450,-66,417,-159,-258,443,-8,193,-200,-721,-1113
-428,-528,-99,478,-165,-313,486,20,228,-201,-783,-1232
-457,-586,-129,521,-164,-358,510,60,270,-180,-818,-1282
-478,-633,-155,555,-161,-394,521,109,319,-144,-840,-1284
-469,-664,-195,567,-137,-430,523,182,367,-77,-794,-1219
-443,-685,-241,564,-101,-463,519,270,418,7,-712,-1101
-400,-679,-278,540,-61,-478,501,359,467,107,-582,-947
-342,-651,-309,496,-17,-480,469,448,512,219,-415,-758
-286,-595,-308,441,11,-452,430,515,556,332,-240,-564
-225,-515,-289,370,32,-402,384,568,597,452,-42,-362
-172,-428,-256,300,42,-342,340,601,625,555,131,-177
-121,-335,-213,228,46,-274,298,619,642,648,298,-11
-74,-239,-165,156,46,-202,252,621,647,719,435,126
-35,-144,-109,90,37,-127,205,611,643,769,540,232
2,-60,-62,29,32,-61,169,586,627,795,617,301
33,15,-18,-24,25,-1,140,547,602,796,651,339
53,66,13,-60,20,39,112,500,559,770,650,348
69,99,30,-84,19,65,82,445,502,722,617,339
76,120,44,-98,16,82,59,394,446,663,567,323
85,134,49,-110,18,92,40,349,388,598,519,305
90,145,55,-118,18,100,28,306,334,530,462,287
94,153,60,-124,17,106,22,267,282,462,411,266
94,156,63,-125,15,110,10,230,236,402,365,248
83,153,70,-118,6,112,-3,193,196,346,318,225
76,149,73,-113,2,111,-12,161,161,297,279,202
67,144,78,-105,-5,111,-18,130,130,249,231,178
57,138,81,-97,-12,109,-22,103,104,208,191,156
51,132,82,-92,-15,107,-28,79,81,172,153,141
42,125,83,-83,-21,104,-34,62,63,142,118,125
38,117,80,-78,-21,99,-41,53,47,120,100,113
37,110,74,-73,-19,92,-44,44,34,100,78,106
39,103,64,-71,-12,84,-41,36,21,84,68,101
42,96,55,-69,-7,75,-45,30,9,70,59,97
37,87,50,-62,-7,69,-50,26,0,55,46,88
35,81,46,-58,-6,64,-52,20,-9,42,40,79
30,77,48,-53,-9,62,-51,9,-16,24,23,69
25,74,50,-49,-12,62,-50,0,-21,12,10,58
24,74,51,-49,-14,62,-52,-8,-26,3,-2,52
20,72,52,-47,-16,62,-55,-15,-29,-4,-14,47
24,73,49,-48,-13,61,-60,-19,-32,-4,-12,47
27,71,44,-49,-9,58,-60,-22,-35,-6,-16,48
32,67,36,-50,-2,52,-55,-23,-38,-6,-12,47
38,66,28,-52,5,47,-55,-23,-42,-8,-10,48
39,64,25,-51,7,44,-56,-22,-44,-13,-14,44
43,64,21,-53,11,42,-55,-23,-45,-15,-10,41
44,64,21,-54,12,42,-55,-27,-44,-19,-18,37
41,63,23,-52,9,43,-54,-30,-44,-23,-21,31
38,63,25,-51,7,44,-56,-35,-46,-29,-27,28
33,62,30,-48,2,46,-59,-37,-48,-34,-35,27
33,64,31,-49,1,48,-64,-37,-51,-35,-31,30
33,64,31,-49,1,48,-64,-38,-54,-38,-35,32
35,63,28,-49,3,45,-60,-39,-57,-40,-31,32
34,61,27,-48,4,44,-59,-37,-58,-40,-27,35
26,57,31,-42,-2,44,-57,-33,-56,-41,-28,36
22,56,34,-39,-6,45,-55,-27,-55,-39,-20,37
14,55,42,-34,-14,48,-53,-24,-52,-40,-22,37
11,52,42,-32,-15,47,-52,-24,-53,-40,-23,32
14,49,35,-32,-11,42,-56,-29,-57,-40,-28,28
13,49,36,-31,-12,42,-60,-32,-58,-42,-35,26
16,53,37,-34,-11,45,-65,-32,-59,-42,-31,27
18,56,38,-37,-10,47,-66,-32,-58,-41,-32,31
24,58,35,-41,-6,47,-61,-30,-57,-38,-22,34
27,58,32,-43,-2,45,-61,-31,-58,-34,-16,36
24,54,31,-39,-4,43,-61,-32,-58,-33,-16,34
23,53,30,-38,-3,41,-59,-34,-57,-32,-11,31
20,51,32,-35,-6,42,-56,-39,-53,-35,-16,27
17,50,33,-34,-8,41,-53,-41,-52,-35,-18,23
18,49,31,-33,-7,40,-52,-44,-54,-35,-23,22
14,48,34,-31,-10,41,-53,-43,-53,-34,-27,22
15,50,36,-32,-11,43,-57,-39,-51,-30,-18,26
17,50,34,-34,-8,42,-57,-38,-50,-28,-19,26
24,50,27,-37,-2,38,-53,-39,-51,-26,-14,22
32,50,19,-41,6,35,-54,-41,-55,-28,-10,23
36,50,15,-43,10,33,-56,-45,-58,-33,-13,24
33,50,18,-42,7,34,-56,-44,-59,-34,-8,24
19,49,31,-34,-6,40,-52,-42,-57,-35,-15,24
10,48,38,-29,-14,43,-50,-41,-54,-35,-17,24
7,48,42,-27,-18,45,-51,-44,-53,-36,-23,27
2,47,45,-24,-21,46,-54,-44,-51,-37,-28,27
4,47,43,-25,-20,45,-60,-42,-51,-34,-21,26
4,46,43,-25,-19,45,-61,-44,-50,-33,-22,28
7,47,41,-27,-17,44,-56,-46,-51,-30,-16,28
10,47,38,-28,-14,43,-58,-49,-51,-26,-12,30
8,45,38,-26,-15,41,-61,-50,-50,-24,-12,29
11,44,34,-28,-11,39,-63,-49,-52,-23,-8,26
12,42,31,-27,-9,36,-63,-48,-53,-27,-17,23
11,41,30,-26,-10,35,-62,-49,-55,-30,-19,18
9,40,32,-24,-12,36,-64,-54,-57,-32,-23,16
6,39,34,-22,-14,36,-66,-56,-57,-34,-28,14
9,40,31,-25,-11,35,-69,-56,-58,-32,-23,16
8,39,32,-24,-12,35,-69,-57,-57,-34,-26,18
6,38,32,-22,-13,35,-63,-59,-55,-35,-22,19
5,37,33,-21,-14,35,-65,-61,-57,-35,-20,21
1,36,36,-19,-17,36,-70,-63,-59,-36,-21,20
2,38,36,-20,-17,37,-72,-64,-60,-35,-17,19
0,39,39,-20,-19,39,-74,-66,-59,-37,-23,18
1,40,40,-21,-19,40,-72,-69,-59,-38,-23,15
4,43,39,-23,-17,41,-71,-73,-61,-39,-26,15
4,43,39,-23,-18,41,-72,-75,-59,-42,-31,13
7,44,37,-26,-15,41,-76,-73,-55,-43,-27,13
5,43,38,-24,-16,40,-76,-75,-56,-46,-30,15
2,40,39,-21,-18,39,-73,-76,-60,-46,-25,15
2,38,36,-20,-17,37,-75,-78,-63,-46,-23,15
0,34,35,-17,-17,34,-77,-80,-65,-48,-26,12
0,33,34,-17,-17,34,-76,-80,-66,-48,-23,12
-4,34,38,-15,-21,36,-74,-80,-64,-52,-30,15
-9,31,41,-11,-25,36,-72,-83,-64,-53,-30,12
-13,28,42,-8,-28,35,-72,-88,-67,-55,-31,8
-16,25,42,-4,-29,33,-73,-90,-66,-57,-36,4
-12,23,36,-5,-24,30,-76,-90,-67,-56,-32,2
-10,22,33,-6,-21,27,-74,-92,-67,-59,-38,2
-6,22,29,-8,-17,25,-67,-94,-67,-61,-38,2
-6,22,28,-8,-17,25,-66,-95,-66,-62,-37,2
-12,20,32,-4,-22,26,-68,-95,-62,-62,-39,-1
-13,21,35,-4,-24,28,-67,-95,-61,-62,-35,-3
-16,24,41,-4,-28,32,-66,-98,-61,-65,-42,-4
-20,22,43,-1,-32,33,-62,-99,-61,-67,-44,-7
-25,18,44,3,-34,31,-60,-101,-63,-69,-48,-6
-30,16,47,7,-39,31,-60,-102,-62,-72,-55,-7
-30,17,48,7,-39,32,-64,-102,-62,-73,-53,-5
-32,15,47,8,-39,31,-64,-103,-61,-75,-57,-5
-30,12,42,9,-36,27,-58,-104,-62,-74,-52,-7
-28,11,40,8,-34,25,-59,-107,-63,-73,-50,-9
-30,10,41,10,-36,26,-61,-111,-63,-73,-54,-13
-28,10,39,9,-33,24,-60,-115,-63,-74,-52,-16
-29,8,38,10,-33,23,-59,-121,-63,-79,-61,-19
-28,7,36,11,-32,21,-54,-125,-63,-81,-63,-24
-26,7,33,10,-30,20,-49,-130,-63,-83,-68,-27
-32,4,36,14,-34,20,-47,-133,-61,-84,-74,-29
-36,2,39,17,-38,20,-47,-132,-60,-81,-70,-29
-41,0,42,21,-42,21,-41,-133,-57,-82,-74,-30
-43,-1,42,22,-43,20,-30,-132,-54,-81,-70,-32
-44,-5,39,24,-42,17,-26,-132,-53,-81,-69,-35
-48,-12,36,30,-42,12,-26,-131,-52,-82,-72,-40
-50,-18,33,34,-42,8,-23,-129,-49,-81,-68,-42
-57,-24,34,41,-45,5,-18,-128,-44,-83,-73,-42
-63,-31,32,47,-47,0,-14,-126,-43,-84,-74,-47
-67,-38,29,53,-48,-5,-13,-124,-46,-86,-78,-53
-72,-46,27,59,-50,-9,-15,-125,-48,-90,-85,-57
-72,-51,22,62,-47,-14,-21,-127,-52,-92,-82,-59
-72,-57,16,65,-44,-20,-23,-130,-56,-96,-88,-60
-69,-63,6,66,-38,-29,-21,-132,-61,-98,-85,-62
-67,-70,-3,69,-32,-37,-24,-133,-67,-100,-85,-65
-68,-80,-11,74,-29,-45,-28,-132,-71,-103,-87,-70
-65,-85,-19,75,-23,-52,-30,-131,-71,-104,-84,-72
-64,-88,-23,76,-20,-56,-30,-131,-66,-108,-92,-72
-61,-91,-30,76,-15,-61,-29,-130,-66,-109,-91,-72
-56,-93,-37,75,-9,-65,-29,-130,-70,-109,-91,-70
-50,-95,-44,72,-3,-70,-32,-128,-72,-110,-93,-71
-38,-94,-56,66,9,-75,-37,-122,-76,-110,-87,-71
-32,-96,-64,64,16,-80,-38,-118,-77,-110,-88,-68
-27,-100,-73,63,23,-86,-34,-112,-77,-108,-79,-66
-21,-104,-82,63,30,-93,-37,-106,-78,-105,-73,-63
-19,-110,-90,65,35,-100,-43,-99,-77,-104,-70,-63
-14,-113,-99,64,42,-106,-45,-92,-76,-101,-61,-63
-13,-117,-103,65,45,-110,-44,-86,-74,-103,-63,-63
-12,-120,-108,66,48,-114,-40,-78,-70,-101,-57,-61
-11,-123,-111,67,50,-117,-38,-72,-66,-97,-54,-53
-9,-124,-114,67,52,-119,-37,-67,-63,-94,-51,-49
-1,-121,-120,61,59,-120,-39,-63,-63,-88,-39,-46
-4,-119,-114,61,55,-116,-31,-56,-60,-83,-34,-41
-10,-115,-105,63,47,-110,-16,-46,-55,-75,-20,-37
-12,-117,-104,64,46,-111,-9,-39,-53,-69,-11,-35
-14,-124,-110,69,48,-117,-6,-34,-50,-66,-6,-38
-9,-126,-117,68,54,-121,-1,-30,-50,-64,0,-39
-6,-127,-121,67,58,-124,4,-29,-49,-68,-7,-41
-3,-127,-123,65,60,-125,11,-26,-49,-68,-7,-44
-1,-125,-124,63,61,-124,16,-25,-50,-69,-9,-44
-3,-125,-120,64,58,-122,19,-24,-48,-69,-10,-45
-4,-123,-118,63,57,-120,17,-22,-47,-66,-2,-43
-6,-120,-114,63,54,-117,21,-21,-43,-66,-3,-42
-5,-116,-111,61,53,-113,30,-18,-39,-63,6,-42
-7,-111,-104,59,48,-107,29,-16,-37,-58,11,-42
-13,-106,-92,60,39,-99,26,-15,-35,-52,14,-44
-12,-99,-87,56,37,-93,23,-14,-32,-47,20,-42
-11,-93,-81,52,35,-87,22,-16,-28,-47,16,-38
-11,-87,-75,49,32,-81,23,-14,-24,-43,21,-35
-13,-81,-68,47,28,-75,22,-12,-19,-39,24,-30
-14,-77,-63,45,25,-70,20,-8,-15,-35,26,-25
-7,-70,-62,39,28,-66,14,-3,-13,-29,36,-18
-4,-65,-61,35,28,-63,14,1,-9,-25,38,-12
1,-60,-60,30,30,-60,19,6,-4,-18,51,-8
6,-55,-61,25,33,-58,18,9,-3,-14,57,-4
8,-54,-61,23,34,-57,16,12,-3,-11,60,-4
9,-51,-60,21,34,-55,15,15,-3,-7,70,0
3,-51,-54,24,29,-53,14,16,0,-6,70,6
0,-50,-50,25,25,-50,15,18,2,-1,77,9
-1,-47,-46,24,23,-47,15,17,3,4,80,13
-3,-44,-40,23,19,-42,12,19,7,9,83,17
0,-37,-36,19,18,-36,5,24,12,17,95,25
2,-30,-31,14,16,-30,2,26,15,22,98,32
7,-22,-28,7,17,-25,3,29,15,29,110,36
11,-15,-26,2,18,-20,-1,30,15,34,118,42
12,-11,-23,0,17,-17,-5,32,15,37,123,45
15,-6,-21,-4,18,-13,-10,34,14,40,134,50
14,-3,-16,-5,15,-10,-14,34,14,40,134,55
15,-1,-15,-7,15,-8,-16,34,11,40,140,57
16,0,-16,-8,16,-8,-19,30,5,39,142,61
17,2,-15,-9,16,-7,-22,28,3,36,141,62
24,6,-17,-15,20,-5,-29,28,2,34,148,66
26,10,-16,-18,21,-3,-32,26,2,31,148,70
31,15,-15,-23,23,0,-31,26,2,32,159,73
31,18,-13,-25,22,3,-35,24,2,31,163,74
26,19,-6,-22,16,6,-40,22,2,31,164,71
26,22,-4,-24,15,9,-44,22,1,32,170,70
24,24,0,-24,12,12,-47,20,0,29,165,70
23,25,2,-24,11,14,-46,20,-2,29,166,68
22,24,3,-23,9,14,-45,18,-5,28,162,69
17,23,7,-20,5,15,-48,15,-7,26,157,67
17,25,8,-21,5,16,-56,12,-11,25,160,66
15,25,10,-20,3,17,-59,3,-16,19,153,62
17,26,10,-21,3,18,-58,-9,-22,15,154,55
11,27,16,-19,-2,22,-64,-25,-30,9,146,46
-2,27,29,-12,-15,28,-72,-42,-37,2,133,33
-8,29,38,-11,-23,34,-74,-66,-47,-10,120,14
-15,32,48,-8,-31,40,-73,-96,-56,-29,91,-11
-21,27,48,-3,-35,38,-57,-116,-58,-47,63,-49
-26,18,44,4,-35,31,-34,-129,-54,-68,25,-93
-38,-3,36,21,-37,16,-2,-125,-40,-84,-17,-155
-51,-31,21,41,-36,-5,34,-108,-21,-97,-54,-225
-76,-73,4,74,-40,-34,89,-84,10,-104,-104,-320
-105,-125,-19,115,-43,-72,162,-50,49,-103,-147,-435
-145,-194,-48,170,-49,-121,233,-11,91,-103,-205,-563
-198,-278,-80,238,-59,-179,308,34,139,-102,-272,-705
-249,-362,-112,306,-68,-237,369,75,179,-103,-337,-846
-308,-449,-141,379,-84,-295,421,110,216,-108,-416,-987
-363,-527,-163,445,-100,-344,457,135,248,-106,-480,-1087
-418,-597,-178,508,-120,-387,478,147,274,-104,-544,-1154
-455,-643,-186,549,-134,-414,477,171,307,-69,-554,-1137
-474,-667,-192,570,-141,-429,458,203,343,-8,-517,-1053
-473,-667,-194,570,-140,-430,427,248,377,81,-418,-908
-451,-647,-195,549,-128,-421,387,306,408,195,-257,-713
-408,-601,-192,505,-108,-397,337,363,438,312,-73,-512
-351,-538,-186,444,-83,-361,284,424,471,434,135,-304
-287,-460,-173,374,-57,-316,232,468,496,546,330,-116
-224,-376,-151,300,-36,-263,182,501,516,648,505,55
-166,-292,-125,230,-21,-209,142,523,527,728,652,188
-115,-211,-95,163,-10,-153,107,531,530,786,762,288
-76,-148,-71,112,-3,-109,79,522,518,809,827,343
-42,-96,-53,70,5,-75,55,497,489,804,859,365
-20,-61,-40,40,10,-50,44,459,454,768,843,358
-1,-36,-34,19,16,-34,43,413,411,713,805,331
7,-15,-22,4,15,-18,37,363,366,646,743,300
6,-1,-7,-3,7,-4,31,313,321,572,669,267
9,16,7,-12,1,12,23,268,279,505,605,244
9,32,24,-20,-8,28,14,227,242,441,538,227
10,43,33,-26,-12,38,9,192,207,390,491,214
13,52,40,-32,-14,46,2,159,175,344,448,204
13,56,44,-34,-16,50,-6,131,149,303,411,190
17,60,44,-38,-14,52,-17,105,125,266,383,174
15,64,49,-39,-17,57,-25,79,104,230,348,155
14,68,55,-40,-20,61,-29,56,84,200,323,136
11,69,58,-40,-23,64,-36,34,68,172,295,122
6,66,61,-36,-28,64,-42,18,56,148,271,110
9,65,57,-37,-24,61,-47,7,44,129,256,105
12,62,50,-37,-19,56,-50,-1,35,110,234,103
13,58,45,-35,-16,52,-48,-4,27,99,227,102
13,55,43,-34,-15,49,-47,-8,19,89,219,101
12,53,41,-33,-14,47,-49,-9,14,81,214,98
18,55,38,-36,-10,47,-55,-10,8,76,215,95
18,56,39,-37,-10,48,-58,-16,3,66,206,88
19,58,39,-38,-10,49,-58,-25,-3,58,203,78
20,58,39,-39,-9,49,-61,-35,-8,49,192,72
18,56,38,-37,-10,47,-63,-43,-11,40,180,66
19,55,37,-37,-9,46,-63,-47,-14,39,178,67
15,53,39,-34,-12,46,-61,-47,-13,39,170,72
12,51,39,-31,-14,45,-57,-44,-13,41,173,77
9,48,40,-28,-16,45,-54,-43,-12,40,173,82
6,44,39,-25,-16,42,-54,-43,-12,39,173,83
9,42,33,-25,-12,38,-59,-45,-14,40,179,83
11,42,32,-26,-11,37,-62,-49,-16,36,175,78
15,45,31,-30,-8,38,-61,-51,-20,31,180,70
16,47,32,-32,-8,40,-62,-53,-23,26,175,66
12,47,35,-30,-11,41,-61,-52,-23,21,166,62
12,47,35,-30,-11,41,-61,-53,-24,17,165,64
9,45,37,-27,-14,41,-59,-54,-22,12,157,67
8,43,35,-25,-14,39,-56,-52,-21,11,159,69
7,41,34,-24,-13,38,-53,-49,-21,10,158,72
6,39,34,-23,-14,37,-53,-47,-20,9,157,71
10,40,31,-25,-10,36,-57,-45,-21,10,161,70
9,41,32,-25,-11,37,-58,-46,-22,7,157,67
10,41,32,-26,-11,37,-56,-48,-23,5,162,64
11,42,32,-27,-10,37,-58,-52,-23,3,160,62
9,42,33,-25,-12,38,-59,-55,-20,2,158,58
13,43,31,-27,-9,37,-61,-55,-17,2,161,60
13,42,30,-27,-8,36,-62,-55,-10,-1,155,63
14,41,28,-27,-7,35,-59,-53,-10,0,160,64
13,40,27,-26,-7,34,-56,-53,-14,0,160,65
11,39,29,-25,-9,34,-54,-53,-16,0,159,67
14,42,28,-28,-7,35,-56,-54,-18,2,164,71
15,44,30,-30,-7,37,-56,-55,-19,2,161,70
20,48,28,-34,-4,38,-54,-54,-18,4,168,66
21,49,29,-35,-4,39,-55,-55,-21,3,167,64
16,47,32,-32,-8,40,-54,-56,-24,2,164,62
16,47,32,-31,-8,40,-55,-55,-27,1,168,63
12,46,35,-29,-12,41,-56,-54,-27,-5,163,65
11,45,35,-28,-12,40,-52,-51,-28,-5,167,66
11,44,34,-27,-12,39,-46,-50,-29,-4,166,67
8,42,35,-25,-14,39,-46,-49,-29,-3,165,66
8,42,35,-25,-14,39,-51,-49,-31,0,171,66
7,41,34,-24,-13,38,-53,-52,-29,-1,167,64
12,40,29,-26,-9,35,-50,-55,-27,-2,172,60
14,39,26,-26,-6,32,-50,-58,-28,-3,170,59
11,35,24,-23,-6,29,-48,-59,-29,-4,168,58
12,34,23,-23,-6,29,-48,-60,-31,-3,171,59
8,34,27,-21,-10,31,-48,-62,-32,-5,165,59
6,33,28,-19,-11,31,-45,-62,-32,-5,167,60
3,32,29,-17,-13,31,-41,-64,-32,-6,164,62
-1,29,31,-14,-16,30,-40,-66,-32,-8,161,62
0,28,29,-14,-14,29,-45,-68,-34,-9,163,63
-2,28,31,-13,-16,29,-46,-70,-36,-11,159,61
-1,29,31,-14,-16,30,-43,-70,-38,-11,164,57
0,30,31,-14,-15,30,-43,-72,-40,-12,163,55
-1,28,30,-13,-16,29,-41,-73,-41,-14,162,52
0,30,31,-15,-15,31,-42,-74,-41,-15,165,53
-3,32,36,-14,-19,34,-43,-76,-38,-20,158,54
-3,32,36,-14,-20,35,-41,-75,-38,-21,160,54
-3,31,35,-14,-19,33,-38,-73,-38,-24,157,56
-4,29,34,-12,-19,32,-38,-73,-38,-26,154,56
-1,29,31,-14,-16,30,-42,-74,-40,-27,156,58
-1,30,32,-14,-16,31,-42,-77,-42,-31,151,58
2,33,32,-17,-15,32,-39,-78,-45,-32,157,56
2,33,32,-17,-15,33,-38,-79,-45,-33,157,54
-1,31,33,-15,-17,33,-36,-78,-42,-33,156,50
1,32,33,-16,-16,33,-37,-80,-45,-32,160,49
-1,33,35,-16,-18,34,-38,-83,-49,-33,155,50
0,34,35,-17,-17,35,-34,-85,-51,-32,156,49
2,36,35,-19,-17,36,-30,-87,-52,-34,151,50
0,36,37,-18,-18,36,-29,-88,-51,-36,147,50
1,36,36,-18,-18,36,-33,-88,-52,-38,151,51
3,36,34,-19,-16,35,-36,-91,-54,-41,145,52
11,37,27,-24,-8,33,-36,-94,-59,-40,149,53
14,38,25,-26,-5,32,-37,-98,-61,-42,146,54
13,37,25,-25,-6,31,-36,-101,-62,-44,144,53
14,37,24,-25,-5,31,-37,-104,-63,-45,146,55
10,37,28,-23,-9,33,-39,-107,-63,-49,139,56
9,35,27,-22,-9,31,-36,-109,-63,-49,140,56
7,33,26,-20,-10,30,-33,-114,-64,-50,135,57
4,31,28,-17,-12,30,-32,-116,-63,-51,131,57
6,32,28,-19,-11,30,-36,-118,-63,-50,133,60
4,34,31,-19,-14,33,-35,-120,-63,-52,128,60
5,37,33,-21,-14,35,-30,-122,-63,-50,134,60
4,38,34,-21,-15,36,-29,-123,-63,-49,136,62
1,37,36,-18,-18,37,-27,-123,-60,-48,138,63
3,38,35,-20,-16,37,-26,-123,-60,-47,144,65
3,38,36,-20,-16,37,-27,-124,-58,-49,139,67
5,38,34,-21,-14,36,-23,-125,-58,-48,143,67
5,37,33,-21,-14,35,-18,-128,-59,-49,139,69
3,36,34,-19,-15,35,-15,-128,-55,-49,137,69
4,37,34,-20,-15,36,-16,-126,-52,-48,142,72
2,38,37,-20,-17,38,-14,-125,-47,-46,141,74
2,40,38,-21,-18,39,-8,-123,-41,-40,152,76
1,40,40,-20,-19,40,-6,-122,-38,-37,156,79
-3,38,41,-18,-22,40,-4,-119,-36,-34,160,79
